"Data Set 1:Time(s)","Data Set 1:Force(N)","Data Set 1:Respiration Rate(bpm)","Data Set 2:Time(s)","Data Set 2:Force(N)","Data Set 2:Respiration Rate(bpm)","Data Set 3:Time(s)","Data Set 3:Force(N)","Data Set 3:Respiration Rate(bpm)","Data Set 4:Time(s)","Data Set 4:Force(N)","Data Set 4:Respiration Rate(bpm)","Data Set 5:Time(s)","Data Set 5:Force(N)","Data Set 5:Respiration Rate(bpm)"
0,11.745620727539062,7.7653145790100098,0,15.746749877929688,3.1645567417144775,0,11.020004272460938,13.392856597900391,0,4.3565597534179688,9.5137424468994141,0,0.9660797119140625,13.698630332946777
0.10000000000000001,11.684303283691406,,0.050000000000000003,18.63134765625,,0.10000000000000001,9.9468994140625,,0.10000000000000001,5.3504562377929688,,0.10000000000000001,0.9481964111328125,
0.20000000000000001,11.6025390625,,0.10000000000000001,23.478183746337891,,0.20000000000000001,8.7664947509765625,,0.20000000000000001,6.6713943481445312,,0.20000000000000001,1.0197296142578125,
0.29999999999999999,11.594879150390625,,0.14999999999999999,24.101600646972656,,0.29999999999999999,8.5876388549804688,,0.29999999999999999,7.307586669921875,,0.29999999999999999,1.3161163330078125,
0.40000000000000002,11.643424987792969,,0.20000000000000001,24.845108032226562,,0.40000000000000002,8.4522247314453125,,0.40000000000000002,7.915679931640625,,0.40000000000000002,1.7504653930664062,
0.5,11.691970825195312,,0.25,25.207916259765625,,0.5,8.2197189331054688,,0.5,8.521209716796875,,0.5,2.212921142578125,
0.59999999999999998,11.625534057617188,,0.29999999999999999,25.412315368652344,,0.59999999999999998,7.8850173950195312,,0.59999999999999998,9.1804046630859375,,0.59999999999999998,2.708587646484375,
0.69999999999999996,11.490119934082031,,0.34999999999999998,25.358661651611328,,0.69999999999999996,7.6550674438476562,,0.69999999999999996,9.7987136840820312,,0.69999999999999996,3.2144775390625,
0.80000000000000004,11.387924194335938,,0.40000000000000002,25.14404296875,,0.80000000000000004,7.5503158569335938,,0.80000000000000004,10.37103271484375,,0.80000000000000004,3.6769332885742188,
0.90000000000000002,11.265281677246094,,0.45000000000000001,24.689250946044922,,0.90000000000000002,7.473663330078125,,0.90000000000000002,11.048110961914062,,0.90000000000000002,4.162384033203125,
1,11.14263916015625,,0.5,24.303447723388672,,1,7.3970108032226562,,1,11.720069885253906,,1,4.650390625,
1.1000000000000001,11.060882568359375,,0.55000000000000004,23.616153717041016,,1.1000000000000001,7.325469970703125,,1.1000000000000001,12.228515625,,1.1000000000000001,5.0234146118164062,
1.2,10.943351745605469,,0.59999999999999998,23.128147125244141,,1.2,7.2590408325195312,,1.2,12.361373901367188,,1.2,5.2738113403320312,
1.3,10.795166015625,,0.65000000000000002,22.502170562744141,,1.3,7.2053909301757812,,1.3,11.988349914550781,,1.3,5.4424362182617188,
1.3999999999999999,10.636749267578125,,0.69999999999999996,22.195571899414062,,1.3999999999999999,7.1134109497070312,,1.3999999999999999,11.372589111328125,,1.3999999999999999,5.5344161987304688,
1.5,10.414466857910156,,0.75,21.932407379150391,,1.5,6.8809051513671875,,1.5,10.7210693359375,,1.5,5.5727462768554688,
1.6000000000000001,10.079765319824219,,0.80000000000000004,21.886417388916016,,1.6000000000000001,6.6739501953125,,1.6000000000000001,9.9903411865234375,,1.6000000000000001,5.5804061889648438,
1.7,9.6837387084960938,,0.84999999999999998,21.814876556396484,,1.7,6.6202926635742188,,1.7,9.441009521484375,,1.7,5.6366195678710938,
1.8,9.7067337036132812,,0.90000000000000002,21.628360748291016,,1.8,6.599853515625,,1.8,9.1676254272460938,,1.8,5.6468353271484375,
1.8999999999999999,10.110420227050781,,0.94999999999999996,21.140357971191406,,1.8999999999999999,6.5743026733398438,,1.8999999999999999,8.9555587768554688,,1.8999999999999999,5.5012054443359375,
2,10.736396789550781,,1,20.8388671875,,2,6.5615310668945312,,2,9.0424346923828125,,2,5.3427963256835938,
2.1000000000000001,11.178413391113281,,1.05,20.483722686767578,,2.1000000000000001,6.571746826171875,,2.1000000000000001,9.369476318359375,,2.1000000000000001,5.1767196655273438,
2.2000000000000002,11.334266662597656,,1.1000000000000001,20.266548156738281,,2.2000000000000002,6.6381759643554688,,2.2000000000000002,9.67095947265625,,2.2000000000000002,4.97998046875,
2.2999999999999998,11.3828125,,1.1499999999999999,19.988052368164062,,2.2999999999999998,6.6995010375976562,,2.2999999999999998,9.5968704223632812,,2.2999999999999998,4.640167236328125,
2.3999999999999999,11.265281677246094,,1.2,19.801536560058594,,2.3999999999999999,6.8093643188476562,,2.3999999999999999,9.37713623046875,,2.3999999999999999,4.1572723388671875,
2.5,11.119644165039062,,1.25,19.512821197509766,,2.5,7.2002792358398438,,2.5,9.0500946044921875,,2.5,3.6130599975585938,
2.6000000000000001,11.145195007324219,,1.3,19.351856231689453,,2.6000000000000001,7.841583251953125,,2.6000000000000001,8.7000656127929688,,2.6000000000000001,3.1531600952148438,
2.7000000000000002,11.211624145507812,,1.3500000000000001,19.185783386230469,,2.7000000000000002,8.5161056518554688,,2.7000000000000002,8.4777755737304688,,2.7000000000000002,2.79034423828125,
2.7999999999999998,11.275505065917969,,1.3999999999999999,19.104022979736328,,2.7999999999999998,9.1829605102539062,,2.7999999999999998,8.32958984375,,2.7999999999999998,2.4300918579101562,
2.8999999999999999,11.301055908203125,,1.45,18.884292602539062,,2.8999999999999999,9.8600311279296875,,2.8999999999999999,8.1890640258789062,,2.8999999999999999,2.0774993896484375,
3,11.306159973144531,,1.5,18.593021392822266,,3,10.595870971679688,,3,8.0306549072265625,,3,1.6993637084960938,
3.1000000000000001,11.43902587890625,,1.55,18.076911926269531,,3.1000000000000001,11.390480041503906,,3.1000000000000001,7.8517990112304688,,3.1000000000000001,1.3416595458984375,
3.2000000000000002,11.689414978027344,,1.6000000000000001,17.783088684082031,,3.2000000000000002,12.090545654296875,,3.2000000000000002,7.6193008422851562,,3.2000000000000002,1.1142654418945312,
3.2999999999999998,12.366485595703125,,1.6499999999999999,17.504592895507812,,3.2999999999999998,12.706298828125,,3.2999999999999998,7.3484649658203125,,3.2999999999999998,0.95074462890625,
3.3999999999999999,13.582664489746094,,1.7,17.458602905273438,,3.3999999999999999,13.431922912597656,,3.3999999999999999,7.0342025756835938,,3.3999999999999999,0.8281097412109375,
3.5,14.793739318847656,,1.75,17.392173767089844,,3.5,14.195869445800781,,3.5,6.6151809692382812,,3.5,0.7718963623046875,
3.6000000000000001,15.777412414550781,,1.8,17.220985412597656,,3.6000000000000001,14.798851013183594,,3.6000000000000001,6.2447052001953125,,3.6000000000000001,0.7259063720703125,
3.7000000000000002,16.592460632324219,,1.8500000000000001,16.791748046875,,3.7000000000000002,15.340507507324219,,3.7000000000000002,6.0326461791992188,,3.7000000000000002,0.6799163818359375,
3.7999999999999998,17.259311676025391,,1.8999999999999999,16.556686401367188,,3.7999999999999998,16.109565734863281,,3.7999999999999998,5.864013671875,,3.7999999999999998,0.66970062255859375,
3.8999999999999999,17.800971984863281,,1.95,16.556686401367188,,3.8999999999999999,17.070243835449219,,3.8999999999999999,5.6953811645507812,,3.8999999999999999,0.6722564697265625,
4,18.600688934326172,,2,16.73553466796875,,4,18.007926940917969,,4,5.542083740234375,,4,0.6620330810546875,
4.0999999999999996,20.184787750244141,,2.0499999999999998,17.006366729736328,,4.0999999999999996,18.991603851318359,,4.0999999999999996,5.3887863159179688,,4.0999999999999996,0.67736053466796875,
4.2000000000000002,22.517501831054688,,2.1000000000000001,17.054912567138672,,4.2000000000000002,20.064701080322266,,4.2000000000000002,5.3146896362304688,,4.2000000000000002,0.72846221923828125,
4.2999999999999998,24.888542175292969,,2.1499999999999999,16.945045471191406,,4.2999999999999998,21.11480712890625,,4.2999999999999998,5.5216445922851562,,4.2999999999999998,0.868988037109375,
4.4000000000000004,26.447090148925781,,2.2000000000000002,16.778972625732422,,4.4000000000000004,22.085708618164062,,4.4000000000000004,5.9483261108398438,,4.4000000000000004,1.1142654418945312,
4.5,27.213592529296875,,2.25,16.451934814453125,,4.5,23.056606292724609,,4.5,6.4542160034179688,,4.5,1.3978729248046875,
4.5999999999999996,27.824237823486328,,2.2999999999999998,16.255195617675781,,4.5999999999999996,24.045391082763672,,4.5999999999999996,7.0699691772460938,,4.5999999999999996,1.6942520141601562,
4.7000000000000002,28.286693572998047,,2.3500000000000001,16.043128967285156,,4.7000000000000002,24.988185882568359,,4.7000000000000002,7.767486572265625,,4.7000000000000002,2.0059661865234375,
4.7999999999999998,29.078742980957031,,2.3999999999999999,15.68798828125,,4.7999999999999998,26.258022308349609,,4.7999999999999998,8.4445648193359375,,4.7999999999999998,2.3304443359375,
4.9000000000000004,29.191162109375,,2.4500000000000002,15.455482482910156,,4.9000000000000004,27.739921569824219,,4.9000000000000004,9.0756454467773438,,4.9000000000000004,2.6293792724609375,
5,27.732257843017578,,2.5,15.06201171875,,5,28.677608489990234,,5,9.5559844970703125,,5,2.8848800659179688,
5.0999999999999996,25.708698272705078,,2.5499999999999998,14.788627624511719,,5.0999999999999996,29.518199920654297,,5.0999999999999996,10.143638610839844,,5.0999999999999996,3.2553558349609375,
5.2000000000000002,23.797557830810547,,2.6000000000000001,14.494804382324219,,5.2000000000000002,30.200386047363281,,5.2000000000000002,10.772171020507812,,5.2000000000000002,3.646270751953125,
5.2999999999999998,22.162357330322266,,2.6499999999999999,14.372161865234375,,5.2999999999999998,30.231044769287109,,5.2999999999999998,11.436470031738281,,5.2999999999999998,4.0193023681640625,
5.4000000000000004,20.918071746826172,,2.7000000000000002,14.223968505859375,,5.4000000000000004,29.329132080078125,,5.4000000000000004,12.0828857421875,,5.4000000000000004,4.2952423095703125,
5.5,19.724887847900391,,2.75,14.098777770996094,,5.5,28.097621917724609,,5.5,12.813613891601562,,5.5,4.5558547973632812,
5.5999999999999996,18.416728973388672,,2.7999999999999998,13.889266967773438,,5.5999999999999996,26.674488067626953,,5.5999999999999996,13.735969543457031,,5.5999999999999996,4.9109954833984375,
5.7000000000000002,17.172443389892578,,2.8500000000000001,13.733413696289062,,5.7000000000000002,25.105716705322266,,5.7000000000000002,14.745193481445312,,5.7000000000000002,5.1971588134765625,
5.7999999999999998,16.3497314453125,,2.8999999999999999,13.48046875,,5.7999999999999998,23.866542816162109,,5.7999999999999998,15.772300720214844,,5.7999999999999998,5.2789154052734375,
5.9000000000000004,15.96392822265625,,2.9500000000000002,13.324615478515625,,5.9000000000000004,23.000396728515625,,5.9000000000000004,16.761085510253906,,5.9000000000000004,5.2252655029296875,
6,15.675209045410156,,3,13.132987976074219,,6,22.060157775878906,,6,17.721767425537109,,6,5.1307296752929688,
6.0999999999999996,15.314956665039062,,3.0499999999999998,13.066558837890625,,6.0999999999999996,20.981948852539062,,6.0999999999999996,19.142345428466797,,6.0999999999999996,4.9672088623046875,
6.2000000000000002,14.939369201660156,,3.1000000000000001,13.033340454101562,,6.2000000000000002,19.890960693359375,,6.2000000000000002,21.191455841064453,,6.2000000000000002,4.7704696655273438,
6.2999999999999998,14.433479309082031,,3.1499999999999999,13.002685546875,,6.2999999999999998,18.610908508300781,,6.2999999999999998,23.58038330078125,,6.2999999999999998,4.5711822509765625,
6.4000000000000004,13.702751159667969,,3.2000000000000002,12.966911315917969,,6.4000000000000004,17.241428375244141,,6.4000000000000004,25.711250305175781,,6.4000000000000004,4.3386764526367188,
6.5,13.066558837890625,,3.25,12.987350463867188,,6.5,16.1300048828125,,6.5,27.042407989501953,,6.5,4.1138381958007812,
6.5999999999999996,12.736961364746094,,3.2999999999999998,13.015457153320312,,6.5999999999999996,15.240859985351562,,6.5999999999999996,27.949432373046875,,6.5999999999999996,3.8327865600585938,
6.7000000000000002,12.795730590820312,,3.3500000000000001,13.058891296386719,,6.7000000000000002,14.38238525390625,,6.7000000000000002,28.600955963134766,,6.7000000000000002,3.480194091796875,
6.7999999999999998,13.227523803710938,,3.3999999999999999,13.097213745117188,,6.7999999999999998,13.490684509277344,,6.7999999999999998,28.452766418457031,,6.7999999999999998,3.076507568359375,
6.9000000000000004,14.1422119140625,,3.4500000000000002,13.173866271972656,,6.9000000000000004,12.662864685058594,,6.9000000000000004,27.469093322753906,,6.9000000000000004,2.6370468139648438,
7,15.478477478027344,,3.5,13.232635498046875,,7,11.947463989257812,,7,25.816005706787109,,7,2.2537994384765625,
7.0999999999999996,16.9757080078125,,3.5499999999999998,13.319503784179688,,7.0999999999999996,11.316383361816406,,7.0999999999999996,23.866542816162109,,7.0999999999999996,1.936981201171875,
7.2000000000000002,18.776981353759766,,3.6000000000000001,13.393600463867188,,7.2000000000000002,10.761947631835938,,7.2000000000000002,22.175132751464844,,7.2000000000000002,1.6763687133789062,
7.2999999999999998,20.8388671875,,3.6499999999999999,13.531570434570312,,7.2999999999999998,10.105316162109375,,7.2999999999999998,20.677902221679688,,7.2999999999999998,1.477081298828125,
7.4000000000000004,23.130702972412109,,3.7000000000000002,13.666984558105469,,7.4000000000000004,9.349029541015625,,7.4000000000000004,19.369743347167969,,7.4000000000000004,1.2956695556640625,
7.5,25.445533752441406,,3.75,13.971023559570312,,7.5,8.7026138305664062,,7.5,18.299198150634766,,7.5,1.1525955200195312,
7.5999999999999996,26.761356353759766,,3.7999999999999998,14.236747741699219,,7.5999999999999996,8.19927978515625,,7.5999999999999996,17.351291656494141,,7.5999999999999996,1.02484130859375,
7.7000000000000002,27.080730438232422,,3.8500000000000001,14.709419250488281,,7.7000000000000002,7.8288040161132812,,7.7000000000000002,16.492813110351562,,7.7000000000000002,0.8970947265625,
7.7999999999999998,26.143047332763672,,3.8999999999999999,14.97003173828125,,7.7999999999999998,7.5247650146484375,,7.7999999999999998,15.695655822753906,,7.7999999999999998,0.82044219970703125,
7.9000000000000004,25.003517150878906,,3.9500000000000002,15.332839965820312,,7.9000000000000004,7.2539291381835938,,7.9000000000000004,14.875495910644531,,7.9000000000000004,0.7897796630859375,
8,24.313667297363281,,4,15.654769897460938,,8,7.087860107421875,,8,14.134544372558594,,8,0.76168060302734375,
8.0999999999999996,23.907421112060547,,4.0499999999999998,16.204093933105469,,8.0999999999999996,6.8885650634765625,,8.0999999999999996,13.222412109375,,8.0999999999999996,0.74634552001953125,
8.1999999999999993,23.470516204833984,,4.0999999999999996,16.587348937988281,,8.1999999999999993,6.69183349609375,,8.1999999999999993,12.486572265625,,8.1999999999999993,0.70546722412109375,
8.3000000000000007,23.135810852050781,,4.1500000000000004,17.182662963867188,,8.3000000000000007,6.479766845703125,,8.3000000000000007,11.80694580078125,,8.3000000000000007,0.66970062255859375,
8.4000000000000004,23.048942565917969,,4.2000000000000002,17.629787445068359,,8.4000000000000004,6.17572021484375,,8.4000000000000004,11.012336730957031,,8.4000000000000004,0.685028076171875,
8.5,23.002952575683594,,4.25,18.324748992919922,,8.5,5.9764328002929688,,8.5,10.02099609375,,8.5,0.70035552978515625,
8.5999999999999996,22.859870910644531,,4.2999999999999998,18.730991363525391,,8.5999999999999996,5.9892044067382812,,8.5999999999999996,9.0475387573242188,,8.5999999999999996,0.6977996826171875,
8.6999999999999993,22.714237213134766,,4.3499999999999996,19.290538787841797,,8.6999999999999993,6.0914077758789062,,8.6999999999999993,8.3423614501953125,,8.6999999999999993,0.7182464599609375,
8.8000000000000007,22.640140533447266,,4.4000000000000004,19.666122436523438,,8.8000000000000007,6.1833877563476562,,8.8000000000000007,7.8109207153320312,,8.8000000000000007,0.7489013671875,
8.9000000000000004,22.560935974121094,,4.4500000000000002,20.220558166503906,,8.9000000000000004,6.23193359375,,8.9000000000000004,7.2232742309570312,,8.9000000000000004,0.80255889892578125,
9,22.254337310791016,,4.5,20.575702667236328,,9,6.2804794311523438,,9,6.5283126831054688,,9,0.9277496337890625,
9.0999999999999996,21.743335723876953,,4.5499999999999998,21.155685424804688,,9.0999999999999996,6.3264694213867188,,9.0999999999999996,5.9764328002929688,,9.0999999999999996,1.17303466796875,
9.1999999999999993,21.362640380859375,,4.5999999999999996,21.561931610107422,,9.1999999999999993,6.3647918701171875,,9.1999999999999993,5.7158203125,,9.1999999999999993,1.4617462158203125,
9.3000000000000007,21.173572540283203,,4.6500000000000004,22.044826507568359,,9.3000000000000007,6.3647918701171875,,9.3000000000000007,5.651947021484375,,9.3000000000000007,1.79901123046875,
9.4000000000000004,20.884857177734375,,4.7000000000000002,22.274776458740234,,9.4000000000000004,6.2881393432617188,,9.4000000000000004,5.6391754150390625,,9.4000000000000004,2.1515960693359375,
9.5,20.095363616943359,,4.75,22.555828094482422,,9.5,6.2191543579101562,,9.5,5.58807373046875,,9.5,2.488861083984375,
9.5999999999999996,18.881736755371094,,4.7999999999999998,22.727012634277344,,9.5999999999999996,6.221710205078125,,9.5999999999999996,5.4552154541015625,,9.5999999999999996,2.8976593017578125,
9.6999999999999993,17.535251617431641,,4.8499999999999996,22.979957580566406,,9.6999999999999993,6.221710205078125,,9.6999999999999993,5.2278213500976562,,9.6999999999999993,3.3958816528320312,
9.8000000000000007,16.204093933105469,,4.9000000000000004,23.105152130126953,,9.8000000000000007,6.1782760620117188,,9.8000000000000007,5.0055313110351562,,9.8000000000000007,4.0090789794921875,
9.9000000000000004,15.159103393554688,,4.9500000000000002,23.171581268310547,,9.9000000000000004,6.1246261596679688,,9.9000000000000004,4.8215713500976562,,9.9000000000000004,4.6018447875976562,
10,14.328727722167969,9.3847761154174805,5,23.135810852050781,,10,6.1578369140625,5.263157844543457,10,4.4894256591796875,3.2467532157897949,10,4.9927597045898438,13.034032821655273
10.1,13.7001953125,,5.0499999999999998,22.982513427734375,,10.1,6.352020263671875,,10.1,4.144500732421875,,10.1,5.2891387939453125,
10.199999999999999,13.352714538574219,,5.0999999999999996,22.816436767578125,,10.199999999999999,6.72760009765625,,10.199999999999999,4.0090789794921875,,10.199999999999999,5.6085128784179688,
10.300000000000001,13.145759582519531,,5.1500000000000004,22.451072692871094,,10.300000000000001,7.1364059448242188,,10.300000000000001,3.9630889892578125,,10.300000000000001,5.7873611450195312,
10.4,12.992462158203125,,5.2000000000000002,22.177688598632812,,10.4,7.42767333984375,,10.4,3.93243408203125,,10.4,5.6928253173828125,
10.5,12.887710571289062,,5.25,21.761222839355469,,10.5,7.7470474243164062,,10.5,3.9273223876953125,,10.5,5.4756546020507812,
10.6,12.803390502929688,,5.2999999999999998,21.485282897949219,,10.6,8.23760986328125,,10.6,3.9375457763671875,,10.6,5.3172454833984375,
10.699999999999999,12.642425537109375,,5.3499999999999996,21.219562530517578,,10.699999999999999,8.8150405883789062,,10.699999999999999,3.9452056884765625,,10.699999999999999,5.2227096557617188,
10.800000000000001,12.415031433105469,,5.4000000000000004,20.846530914306641,,10.800000000000001,9.3720245361328125,,10.800000000000001,3.96820068359375,,10.800000000000001,5.0591888427734375,
10.9,12.139091491699219,,5.4500000000000002,20.570590972900391,,10.9,9.8676986694335938,,10.9,3.9630889892578125,,10.9,4.6606063842773438,
11,11.875930786132812,,5.5,20.12091064453125,,11,10.299491882324219,,11,3.8889999389648438,,11,4.0474090576171875,
11.1,11.709854125976562,,5.5499999999999998,19.837306976318359,,11.1,10.728729248046875,,11.1,3.8378982543945312,,11.1,3.4725341796875,
11.199999999999999,11.643424987792969,,5.5999999999999996,19.415733337402344,,11.199999999999999,11.165634155273438,,11.199999999999999,3.848114013671875,,11.199999999999999,3.0330734252929688,
