index	red ir
0	23626	27118
1	23626	27113
2	23587	27140
3	23627	27058
4	23606	27113
5	23617	27066
6	23600	27100
7	23581	27058
8	23630	27077
9	23567	27066
10	23601	27053
11	23551	27062
12	23617	27033
13	23557	27085
14	23613	27005
15	23563	27062
16	23592	27000
17	23571	27052
18	23594	27002
19	23577	27058
20	23578	27015
21	23602	27061
22	23572	27034
23	23603	27072
24	23567	27060
25	23642	27074
26	23568	27110
27	23615	27095
28	23585	27151
29	23647	27104
30	23606	27172
31	23651	27117
32	23622	27192
33	23658	27136
34	23632	27198
35	23661	27158
36	23656	27192
37	23644	27154
38	23660	27194
39	23617	27167
40	23657	27167
41	23634	27216
42	23676	27154
43	23640	27225
44	23665	27162
45	23657	27208
46	23658	27191
47	23685	27229
48	23633	27199
49	23651	27214
50	23624	27229
51	23703	27193
52	23636	27239
53	23666	27186
54	23637	27261
55	23691	27203
56	23657	27275
57	23699	27196
58	23665	27278
59	23687	27214
60	23666	27276
61	23685	27254
62	23680	27287
63	23675	27265
64	23718	27298
65	23675	27287
66	23700	27312
67	23677	27313
68	23749	27321
69	23679	27363
70	23720	27327
71	23683	27381
72	23738	27316
73	23698	27379
74	23745	27298
75	23700	27392
76	23744	27312
77	23711	27384
78	23743	27328
79	23707	27384
80	23726	27343
81	23743	27392
82	23725	27358
83	23726	27388
84	23706	27378
85	23764	27405
86	23708	27411
87	23743	27382
88	23708	27427
89	23767	27377
90	23713	27442
91	23761	27377
92	23720	27445
93	23753	27374
94	23736	27447
95	23754	27394
96	23727	27447
97	23769	27394
98	23745	27440
99	23756	27410
100	23754	27465
101	23739	27431
102	23783	27460
103	23725	27428
104	23768	27461
105	23729	27443
106	23796	27453
107	23721	27453
108	23775	27420
109	23723	27480
110	23793	27409
111	23746	27485
112	23785	27421
113	23758	27485
114	23786	27434
115	23769	27499
116	23790	27438
117	23757	27492
118	23782	27437
119	23759	27481
120	23750	27414
121	23750	27415
122	23717	27366
123	23759	27351
124	23675	27325
125	23691	27277
126	23669	27285
127	23689	27193
128	23616	27229
129	23660	27143
130	23610	27175
131	23636	27088
132	23612	27147
133	23616	27082
134	23604	27122
135	23598	27064
136	23602	27098
137	23586	27074
138	23608	27091
139	23574	27082
140	23641	27103
141	23566	27091
142	23608	27096
143	23565	27108
144	23638	27085
145	23574	27128
146	23622	27069
147	23589	27142
148	23626	27063
149	23594	27139
150	23615	27065
151	23600	27131
152	23616	27065
153	23598	27125
154	23614	27079
155	23612	27121
156	23601	27086
157	23620	27122
158	23595	27093
159	23614	27129
160	23598	27102
161	23640	27138
162	23647	27145
163	23596	27186
164	23659	27137
165	23622	27220
166	23661	27158
167	23641	27251
168	23672	27200
169	23643	27268
170	23683	27218
171	23664	27299
172	23681	27251
173	23676	27306
174	23684	27272
175	23704	27313
176	23669	27291
177	23694	27331
178	23665	27318
179	23722	27326
180	23662	27320
181	23703	27316
182	23662	27334
183	23731	27318
184	23678	27360
185	23709	27302
186	23678	27366
187	23728	27308
188	23682	27388
189	23729	27306
190	23697	27371
191	23728	27317
192	23695	27382
193	23723	27340
194	23715	27388
195	23726	27345
196	23731	27392
197	23719	27371
198	23733	27402
199	23710	27401
200	23774	27423
201	23719	27429
202	23744	27435
203	23715	27468
204	23776	27431
205	23739	27504
206	23786	27445
207	23755	27526
208	23793	27468
209	23773	27548
210	23818	27502
211	23787	27564
212	23801	27521
213	23811	27583
214	23806	27555
215	23810	27595
216	23796	27575
217	23846	27619
218	23783	27616
219	23831	27582
220	23789	27630
221	23846	27585
222	23803	27641
223	23844	27572
224	23803	27637
225	23844	27568
226	23817	27637
227	23835	27569
228	23807	27619
229	23841	27564
230	23815	27610
231	23822	27586
232	23824	27601
233	23803	27573
234	23848	27593
235	23808	27621
236	23810	27622
237	23797	27583
238	23827	27575
239	23820	27609
240	23829	27614
241	23834	27590
242	23812	27651
243	23855	27616
244	23876	27619
245	23813	27656
246	23854	27606
247	23829	27669
248	23853	27605
249	23830	27660
250	23855	27609
251	23854	27655
252	23839	27616
253	23861	27660
254	23832	27633
255	23852	27658
256	23826	27623
257	23877	27650
258	23802	27652
259	23858	27632
260	23825	27687
261	23862	27631
262	23877	27655
263	23827	27676
264	23854	27614
265	23843	27636
266	23811	27582
267	23846	27594
268	23775	27534
269	23796	27517
270	23723	27499
271	23791	27422
272	23718	27449
273	23759	27346
274	23691	27373
275	23715	27273
276	23671	27319
277	23686	27222
278	23661	27251
279	23637	27185
280	23663	27205
281	23625	27178
282	23637	27174
283	23589	27161
284	23650	27113
285	23597	27157
286	23641	27075
287	23586	27134
288	23633	27063
289	23585	27126
290	23624	27035
291	23582	27105
292	23620	27021
293	23580	27086
294	23608	27023
295	23584	27053
296	23588	26998
297	23602	27035
298	23571	27000
299	23572	26966
300	23589	26970
301	23571	27014
302	23565	26976
303	23590	27013
304	23547	26973
305	23581	26992
306	23540	27013
307	23602	26959
308	23564	27027
309	23591	26967
310	23564	27025
311	23602	26979
312	23575	27036
313	23594	27000
314	23597	27056
315	23582	27026
316	23619	27068
317	23576	27048
318	23600	27061
319	23569	27074
320	23636	27044
321	23575	27102
322	23641	27049
323	23601	27112
324	23632	27050
325	23598	27131
326	23625	27070
327	23621	27132
328	23628	27079
329	23627	27112
330	23607	27097
331	23632	27143
332	23611	27120
333	23670	27151
334	23622	27153
335	23639	27148
336	23606	27161
337	23681	27134
338	23613	27178
339	23654	27141
340	23622	27193
341	23671	27123
342	23632	27218
343	23666	27155
344	23638	27203
345	23667	27174
346	23691	27186
347	23640	27217
348	23682	27178
349	23646	27237
350	23689	27170
351	23663	27259
352	23699	27182
353	23656	27261
354	23695	27210
355	23684	27262
356	23675	27238
357	23694	27277
358	23661	27263
359	23732	27250
360	23667	27318
361	23728	27265
362	23693	27339
363	23732	27275
364	23736	27331
365	23689	27309
366	23707	27333
367	23701	27374
368	23739	27309
369	23728	27381
370	23751	27338
371	23710	27388
372	23743	27349
373	23739	27405
374	23728	27365
375	23743	27392
376	23726	27375
377	23767	27403
378	23709	27373
379	23745	27408
380	23715	27395
381	23785	27405
382	23712	27415
383	23750	27381
384	23721	27438
385	23782	27380
386	23727	27455
387	23785	27382
388	23719	27461
389	23772	27376
390	23745	27461
391	23769	27395
392	23749	27455
393	23777	27426
394	23754	27468
395	23774	27415
396	23768	27477
397	23762	27447
398	23787	27468
399	23751	27447
400	23799	27478
401	23743	27462
402	23816	27464
403	23761	27517
404	23815	27456
405	23765	27540
406	23809	27463
407	23776	27538
408	23812	27477
409	23771	27532
410	23799	27487
411	23781	27517
412	23769	27455
413	23779	27474
414	23754	27418
415	23764	27414
416	23713	27352
417	23727	27355
418	23670	27306
419	23726	27285
420	23637	27261
421	23672	27202
422	23633	27242
423	23677	27143
424	23623	27213
425	23660	27121
426	23606	27170
427	23647	27093
428	23604	27139
429	23617	27088
430	23615	27121
431	23610	27081
432	23618	27108
433	23591	27077
434	23601	27101
435	23579	27059
436	23629	27072
437	23564	27065
438	23603	27044
439	23551	27063
440	23623	27017
441	23554	27058
442	23597	26993
443	23560	27052
444	23531	27030
445	23595	26965
446	23543	27034
447	23586	26965
448	23534	27028
449	23574	26946
450	23556	27012
451	23577	26945
452	23540	27001
453	23567	26959
454	23547	27022
455	23553	26976
456	23564	26996
457	23536	26983
458	23603	27020
459	23532	27014
460	23589	27019
461	23544	27042
462	23623	27033
463	23560	27079
464	23608	27036
465	23566	27097
466	23627	27050
467	23589	27125
468	23626	27053
469	23586	27129
470	23634	27067
471	23595	27145
472	23622	27082
473	23609	27132
474	23621	27085
475	23624	27124
476	23604	27097
477	23620	27121
478	23599	27113
479	23654	27131
480	23599	27122
481	23620	27122
482	23605	27154
483	23659	27092
484	23616	27159
485	23630	27113
486	23631	27168
487	23617	27125
488	23657	27161
489	23608	27122
490	23640	27169
491	23608	27139
492	23679	27146
493	23610	27170
494	23653	27157
495	23611	27187
496	23683	27152
497	23618	27210
498	23690	27159
499	23629	27242
500	23683	27162
501	23638	27227
502	23668	27171
503	23660	27223
504	23662	27195
505	23672	27238
506	23646	27211
507	23676	27240
508	23640	27212
509	23705	27239
510	23639	27240
511	23677	27217
512	23637	27254
513	23701	27208
514	23644	27272
515	23680	27215
516	23659	27276
517	23687	27212
518	23665	27284
519	23643	27237
520	23692	27252
521	23644	27282
522	23698	27244
523	23693	27286
524	23676	27261
525	23699	27293
526	23676	27312
527	23693	27269
528	23716	27306
529	23684	27285
530	23712	27328
531	23683	27300
532	23733	27324
533	23679	27337
534	23723	27327
535	23677	27353
536	23753	27328
537	23697	27379
538	23732	27325
539	23693	27394
540	23759	27333
541	23709	27412
542	23751	27330
543	23715	27404
544	23742	27359
545	23752	27393
546	23707	27372
547	23748	27408
548	23715	27396
549	23775	27395
550	23713	27421
551	23755	27389
552	23724	27452
553	23780	27386
554	23718	27451
555	23780	27376
556	23732	27446
557	23753	27348
558	23723	27408
559	23728	27314
560	23687	27344
561	23705	27266
562	23691	27269
563	23619	27226
564	23651	27182
565	23615	27190
566	23659	27114
567	23590	27153
568	23637	27067
569	23575	27123
570	23614	27055
571	23585	27097
572	23603	27035
573	23572	27079
574	23608	27032
575	23580	27077
576	23581	27022
577	23598	27058
578	23568	27033
579	23615	27054
580	23559	27025
581	23579	27029
582	23533	27036
583	23609	27010
584	23530	27026
585	23574	26985
586	23536	27026
587	23584	26958
588	23544	27022
589	23574	26941
590	23539	27004
591	23568	26950
592	23542	26996
593	23513	26955
594	23540	26973
595	23510	26952
596	23570	26932
597	23507	26977
598	23543	26935
599	23513	26974
600	23565	26926
601	23524	26996
602	23572	26920
603	23543	26995
604	23566	26942
605	23553	27007
606	23573	26980
607	23573	27023
608	23562	27005
609	23600	27062
610	23553	27033
611	23590	27046
612	23554	27076
613	23631	27033
614	23579	27096
615	23606	27012
616	23584	27094
617	23611	27019
618	23578	27087
619	23595	27063
620	23586	27016
621	23574	27063
622	23584	27028
623	23572	27036
624	23596	26990
625	23563	27070
626	23612	26994
627	23558	27075
628	23605	26999
629	23576	27063
630	23600	27006
631	23571	27059
632	23595	26998
633	23575	27060
634	23583	26995
635	23583	27047
636	23572	27021
637	23603	27054
638	23578	27025
639	23580	27052
640	23546	27022
641	23607	27058
642	23548	27039
643	23594	27041
644	23553	27054
645	23614	27025
646	23545	27071
647	23592	27009
648	23552	27059
649	23611	26995
650	23556	27058
651	23594	26991
652	23554	27051
653	23583	26986
654	23564	27039
655	23546	27006
656	23563	27034
657	23537	27013
658	23607	27011
659	23537	27025
660	23579	26994
661	23540	27043
662	23593	26976
663	23558	27037
664	23585	26986
665	23558	27034
666	23573	26995
667	23587	27039
668	23554	27022
669	23587	27037
670	23559	27046
671	23616	27022
672	23542	27070
673	23590	27020
674	23560	27078
675	23608	27010
676	23568	27087
677	23608	27021
678	23566	27092
679	23602	27022
680	23577	27084
681	23609	27045
682	23584	27085
683	23615	27051
684	23600	27100
685	23609	27070
686	23606	27108
687	23588	27084
688	23625	27120
689	23581	27093
690	23614	27102
691	23579	27113
692	23648	27112
693	23568	27145
694	23619	27101
695	23607	27156
696	23645	27100
697	23588	27161
698	23647	27111
699	23610	27178
700	23647	27121
701	23613	27185
702	23636	27118
703	23624	27169
704	23631	27115
705	23616	27133
706	23587	27071
707	23600	27085
708	23552	27026
709	23586	27035
710	23513	26967
711	23547	26975
712	23498	26928
713	23553	26902
714	23463	26909
715	23516	26865
716	23459	26888
717	23522	26823
718	23455	26887
719	23515	26812
720	23465	26877
721	23498	26785
722	23462	26859
723	23482	26784
724	23475	26827
725	23429	26825
726	23493	26780
727	23446	26828
728	23472	26770
729	23441	26827
730	23489	26745
731	23435	26822
732	23459	26738
733	23433	26814
734	23467	26736
735	23439	26804
736	23455	26737
737	23438	26773
738	23438	26734
739	23452	26712
740	23426	26786
741	23446	26705
742	23417	26767
743	23449	26724
744	23432	26759
745	23427	26722
746	23444	26767
747	23406	26746
748	23482	26747
749	23401	26769
750	23455	26731
751	23421	26813
752	23483	26744
753	23452	26833
754	23487	26794
755	23464	26861
756	23505	26809
757	23469	26888
758	23517	26842
759	23497	26897
760	23497	26875
761	23522	26911
762	23481	26883
763	23498	26911
764	23483	26901
765	23548	26894
766	23472	26914
767	23510	26891
768	23471	26931
769	23546	26878
770	23482	26953
771	23547	26891
772	23493	26952
773	23515	26907
774	23503	26901
775	23520	26921
776	23491	26942
777	23522	26886
778	23486	26931
779	23481	26892
780	23539	26903
781	23478	26926
782	23526	26861
783	23485	26944
784	23528	26883
785	23522	26941
786	23486	26954
787	23523	26902
788	23519	26946
789	23493	26962
790	23536	26916
791	23545	26930
792	23490	27001
793	23538	26930
794	23524	26950
795	23514	26993
796	23527	26956
797	23568	26945
798	23522	27007
799	23537	26980
800	23546	26976
801	23545	27022
802	23521	27003
803	23585	26977
804	23545	27044
805	23519	27033
806	23563	27029
807	23561	26994
808	23555	27024
809	23549	27068
810	23532	27021
811	23595	26999
812	23567	27077
813	23551	27092
814	23579	27042
815	23583	27049
816	23573	27115
817	23593	27135
818	23606	27076
819	23639	27087
820	23579	27139
821	23571	27119
822	23603	27104
823	23595	27165
824	23574	27168
825	23629	27129
826	23620	27158
827	23589	27191
828	23604	27160
829	23640	27158
830	23594	27220
831	23619	27196
832	23634	27193
833	23613	27252
834	23618	27209
835	23665	27203
836	23627	27266
837	23619	27232
838	23646	27198
839	23640	27268
840	23616	27261
841	23655	27224
842	23656	27273
843	23631	27296
844	23659	27238
845	23671	27288
846	23637	27318
847	23649	27281
848	23687	27266
849	23671	27321
850	23646	27358
851	23662	27317
852	23682	27309
853	23669	27358
854	23646	27360
855	23700	27320
856	23712	27360
857	23683	27394
858	23678	27364
859	23702	27345
860	23710	27397
861	23672	27414
862	23726	27371
863	23736	27369
864	23688	27401
865	23662	27390
866	23692	27316
867	23699	27334
868	23621	27317
869	23655	27235
870	23659	27229
871	23595	27217
872	23586	27151
873	23582	27106
874	23559	27121
875	23542	27065
876	23583	27021
877	23528	27066
878	23509	27032
879	23542	26982
880	23534	27031
881	23494	27039
882	23545	26971
883	23558	27011
884	23508	27012
885	23530	26957
886	23527	26942
887	23530	26978
888	23486	26986
889	23521	26952
890	23542	26920
891	23504	26965
892	23472	26961
893	23514	26917
894	23506	26901
895	23494	26935
896	23461	26936
897	23523	26874
898	23528	26912
899	23478	26931
900	23472	26873
901	23482	26834
902	23490	26894
903	23467	26909
904	23490	26867
905	23510	26840
906	23480	26911
907	23455	26912
908	23501	26880
909	23505	26927
910	23484	26944
911	23527	26912
912	23541	26951
913	23499	26987
914	23533	26960
915	23539	26960
916	23520	27005
917	23525	26979
918	23572	26971
919	23530	27031
920	23526	27017
921	23551	26984
922	23555	27027
923	23520	27033
924	23564	26992
925	23592	27013
926	23537	27053
927	23528	27025
928	23551	26987
929	23552	27039
930	23528	27074
931	23558	27011
932	23582	27010
933	23546	27061
934	23524	27078
935	23576	27040
936	23563	27050
937	23553	27089
938	23540	27053
939	23591	27032
940	23577	27086
941	23554	27104
942	23575	27062
943	23588	27055
944	23580	27062
945	23579	27116
946	23547	27119
947	23612	27069
948	23607	27141
949	23564	27152
950	23625	27122
951	23618	27163
952	23591	27186
953	23619	27137
954	23644	27146
955	23613	27168
956	23589	27203
957	23629	27165
958	23624	27194
959	23616	27229
960	23615	27190
961	23665	27171
962	23626	27243
963	23607	27205
964	23641	27196
965	23650	27185
966	23649	27243
967	23617	27248
968	23665	27194
969	23669	27265
970	23612	27284
971	23681	27247
972	23668	27273
973	23647	27313
974	23674	27261
975	23698	27262
976	23660	27315
977	23656	27274
978	23681	27270
979	23657	27273
980	23693	27255
981	23678	27311
982	23649	27340
983	23688	27281
984	23700	27329
985	23666	27368
986	23706	27316
987	23670	27317
988	23672	27379
989	23687	27340
990	23736	27327
991	23687	27386
992	23662	27359
993	23699	27328
994	23701	27405
995	23677	27415
996	23727	27369
997	23748	27391
998	23694	27445
999	23705	27409
1000	23714	27380
1001	23712	27470
1002	23696	27428
1003	23746	27413
1004	23720	27464
1005	23694	27471
1006	23733	27459
1007	23737	27480
1008	23719	27519
1009	23730	27479
1010	23775	27455
1011	23753	27512
1012	23724	27535
1013	23765	27497
1014	23763	27487
1015	23776	27533
1016	23750	27571
1017	23758	27515
1018	23798	27503
1019	23759	27553
1020	23733	27552
1021	23754	27510
1022	23774	27500
1023	23768	27563
1024	23747	27558
1025	23760	27529
1026	23804	27510
1027	23777	27578
1028	23752	27543
1029	23779	27532
1030	23781	27517
1031	23755	27559
1032	23742	27517
1033	23791	27478
1034	23746	27518
1035	23724	27497
1036	23739	27433
1037	23727	27440
1038	23695	27437
1039	23720	27400
1040	23705	27342
1041	23727	27311
1042	23661	27339
1043	23653	27287
1044	23663	27236
1045	23669	27295
1046	23629	27301
1047	23660	27240
1048	23685	27231
1049	23640	27277
1050	23632	27220
1051	23649	27205
1052	23627	27267
1053	23617	27220
1054	23665	27217
1055	23617	27222
1056	23675	27188
1057	23636	27251
1058	23610	27256
1059	23646	27214
1060	23642	27221
1061	23619	27250
1062	23643	27195
1063	23674	27199
1064	23608	27223
1065	23617	27178
1066	23637	27158
1067	23605	27197
1068	23587	27197
1069	23647	27149
1070	23629	27195
1071	23599	27205
1072	23624	27166
1073	23621	27182
1074	23598	27222
1075	23642	27183
1076	23671	27192
1077	23641	27231
1078	23624	27205
1079	23654	27188
1080	23631	27258
1081	23626	27249
1082	23669	27223
1083	23675	27266
1084	23620	27291
1085	23673	27237
1086	23667	27295
1087	23644	27316
1088	23692	27248
1089	23697	27288
1090	23657	27319
1091	23653	27286
1092	23675	27263
1093	23678	27314
1094	23642	27310
1095	23682	27269
1096	23691	27325
1097	23651	27345
1098	23687	27296
1099	23685	27291
1100	23660	27338
1101	23669	27294
1102	23712	27278
1103	23674	27338
1104	23644	27337
1105	23696	27301
1106	23687	27313
1107	23673	27359
1108	23672	27320
1109	23722	27301
1110	23683	27366
1111	23674	27351
1112	23712	27330
1113	23725	27388
1114	23688	27414
1115	23726	27366
1116	23744	27381
1117	23701	27425
1118	23728	27391
1119	23735	27383
1120	23716	27430
1121	23693	27414
1122	23752	27391
1123	23735	27446
1124	23699	27456
1125	23740	27412
1126	23733	27437
1127	23722	27479
1128	23714	27448
1129	23762	27419
1130	23775	27457
1131	23731	27485
1132	23741	27440
1133	23750	27418
1134	23750	27463
1135	23716	27482
1136	23759	27431
1137	23780	27427
1138	23734	27472
1139	23712	27474
1140	23745	27425
1141	23750	27446
1142	23748	27488
1143	23730	27469
1144	23780	27445
1145	23798	27459
1146	23740	27517
1147	23756	27477
1148	23771	27449
1149	23750	27500
1150	23726	27480
1151	23779	27438
1152	23760	27491
1153	23739	27514
1154	23776	27453
1155	23764	27479
1156	23737	27521
1157	23775	27455
1158	23817	27484
1159	23753	27525
1160	23736	27483
1161	23770	27459
1162	23769	27513
1163	23745	27500
1164	23793	27464
1165	23784	27512
1166	23743	27532
1167	23797	27469
1168	23783	27504
1169	23762	27531
1170	23778	27480
1171	23802	27484
1172	23753	27517
1173	23750	27501
1174	23772	27450
1175	23764	27502
1176	23739	27514
1177	23787	27464
1178	23806	27511
1179	23763	27541
1180	23777	27491
1181	23787	27510
1182	23773	27554
1183	23769	27521
1184	23821	27501
1185	23782	27564
1186	23763	27563
1187	23803	27531
1188	23806	27572
1189	23781	27594
1190	23779	27541
1191	23826	27510
1192	23801	27579
1193	23761	27561
1194	23779	27492
1195	23755	27481
1196	23738	27483
1197	23724	27419
1198	23759	27364
1199	23749	27346
1200	23706	27356
1201	23655	27349
1202	23706	27269
1203	23677	27261
1204	23657	27287
1205	23629	27230
1206	23671	27186
1207	23654	27222
1208	23607	27212
1209	23632	27156
1210	23642	27187
1211	23604	27184
1212	23633	27131
1213	23637	27146
1214	23623	27108
1215	23628	27150
1216	23593	27155
1217	23622	27117
1218	23619	27128
1219	23592	27155
1220	23610	27107
1221	23637	27084
1222	23591	27135
1223	23573	27102
1224	23616	27075
1225	23598	27107
1226	23554	27103
1227	23612	27053
1228	23600	27096
1229	23559	27102
1230	23570	27054
1231	23590	27021
1232	23557	27069
1233	23552	27029
1234	23598	27002
1235	23561	27060
1236	23541	27062
1237	23579	27034
1238	23577	27041
1239	23577	27046
1240	23593	27032
1241	23590	27069
1242	23593	27095
1243	23595	27048
1244	23606	27116
1245	23595	27124
1246	23555	27104
1247	23608	27087
1248	23587	27140
1249	23598	27098
1250	23628	27109
1251	23580	27140
1252	23618	27085
1253	23609	27134
1254	23578	27115
1255	23633	27085
1256	23602	27150
1257	23612	27104
1258	23609	27116
1259	23582	27151
1260	23622	27097
1261	23621	27138
1262	23574	27136
1263	23614	27090
1264	23593	27159
1265	23573	27146
1266	23634	27107
1267	23646	27127
1268	23590	27164
1269	23582	27140
1270	23614	27098
1271	23613	27177
1272	23607	27130
1273	23633	27125
1274	23606	27185
1275	23596	27179
1276	23662	27132
1277	23646	27199
1278	23596	27221
1279	23651	27182
1280	23658	27175
1281	23649	27238
1282	23644	27204
1283	23677	27188
1284	23650	27247
1285	23635	27259
1286	23675	27217
1287	23661	27239
1288	23646	27280
1289	23684	27227
1290	23701	27239
1291	23654	27290
1292	23654	27260
1293	23674	27259
1294	23663	27307
1295	23678	27261
1296	23715	27285
1297	23671	27339
1298	23681	27287
1299	23686	27272
1300	23694	27340
1301	23669	27332
1302	23728	27302
1303	23686	27365
1304	23680	27334
1305	23709	27306
1306	23704	27361
1307	23668	27375
1308	23721	27342
1309	23732	27359
1310	23691	27396
1311	23685	27391
1312	23717	27350
1313	23716	27348
1314	23697	27396
1315	23688	27378
1316	23736	27333
1317	23742	27397
1318	23691	27413
1319	23701	27387
1320	23726	27357
1321	23722	27411
1322	23717	27437
1323	23721	27404
1324	23756	27391
1325	23726	27439
1326	23702	27449
1327	23744	27416
1328	23747	27463
1329	23711	27472
1330	23762	27427
1331	23779	27440
1332	23733	27489
1333	23733	27448
1334	23750	27416
1335	23737	27488
1336	23731	27462
1337	23780	27442
1338	23786	27486
1339	23744	27518
1340	23740	27480
1341	23764	27453
1342	23756	27524
1343	23743	27493
1344	23799	27469
1345	23771	27531
1346	23735	27525
1347	23773	27497
1348	23771	27528
1349	23756	27547
1350	23789	27501
1351	23805	27540
1352	23760	27562
1353	23790	27508
1354	23772	27522
1355	23758	27563
1356	23759	27520
1357	23822	27506
1358	23781	27556
1359	23748	27570
1360	23804	27523
1361	23791	27532
1362	23786	27579
1363	23760	27551
1364	23816	27531
1365	23780	27567
1366	23756	27559
1367	23783	27515
1368	23772	27529
1369	23737	27534
1370	23768	27436
1371	23765	27457
1372	23713	27458
1373	23715	27391
1374	23707	27358
1375	23692	27381
1376	23673	27330
1377	23697	27275
1378	23660	27308
1379	23629	27284
1380	23657	27228
1381	23651	27276
1382	23616	27276
1383	23662	27225
1384	23669	27267
1385	23630	27270
1386	23614	27221
1387	23644	27186
1388	23649	27239
1389	23611	27252
1390	23650	27197
1391	23668	27188
1392	23622	27232
1393	23607	27235
1394	23649	27177
1395	23628	27181
1396	23602	27218
1397	23591	27168
1398	23634	27121
1399	23651	27148
1400	23597	27163
1401	23563	27165
1402	23602	27115
1403	23600	27123
1404	23581	27159
1405	23567	27131
1406	23614	27086
1407	23609	27133
1408	23569	27148
1409	23615	27103
1410	23601	27134
1411	23588	27169
1412	23609	27129
1413	23640	27125
1414	23603	27177
1415	23603	27133
1416	23618	27125
1417	23624	27166
1418	23585	27176
1419	23644	27128
1420	23662	27190
1421	23602	27218
1422	23637	27167
1423	23632	27173
1424	23620	27226
1425	23626	27198
1426	23662	27189
1427	23663	27239
1428	23627	27248
1429	23661	27210
1430	23656	27208
1431	23639	27261
1432	23629	27271
1433	23619	27277
1434	23670	27223
1435	23696	27252
1436	23636	27275
1437	23633	27243
1438	23677	27211
1439	23671	27260
1440	23639	27280
1441	23639	27238
1442	23698	27209
1443	23675	27269
1444	23634	27282
1445	23671	27231
1446	23666	27256
1447	23639	27306
1448	23666	27286
1449	23670	27265
1450	23703	27254
1451	23673	27318
1452	23670	27291
1453	23682	27272
1454	23679	27322
1455	23656	27317
1456	23707	27280
1457	23703	27348
1458	23655	27352
1459	23700	27293
1460	23692	27343
1461	23671	27363
1462	23716	27321
1463	23733	27342
1464	23685	27387
1465	23682	27335
1466	23713	27333
1467	23692	27408
1468	23686	27376
1469	23733	27347
1470	23731	27412
1471	23681	27427
1472	23729	27391
1473	23722	27431
1474	23696	27442
1475	23753	27406
1476	23761	27449
1477	23721	27475
1478	23758	27431
1479	23752	27399
1480	23720	27474
1481	23710	27446
1482	23774	27426
1483	23766	27496
1484	23722	27505
1485	23765	27487
1486	23765	27478
1487	23758	27537
1488	23752	27503
1489	23806	27473
1490	23775	27543
1491	23744	27569
1492	23799	27501
1493	23797	27546
1494	23764	27574
1495	23770	27531
1496	23821	27530
1497	23777	27581
1498	23765	27550
1499	23798	27528
1500	23813	27598
1501	23767	27601
1502	23816	27568
1503	23835	27621
1504	23782	27633
1505	23827	27594
1506	23811	27579
1507	23799	27638
1508	23773	27628
1509	23827	27575
1510	23830	27587
1511	23859	27598
1512	23797	27636
1513	23789	27632
1514	23823	27586
1515	23832	27651
1516	23807	27689
1517	23808	27655
1518	23849	27622
1519	23869	27623
1520	23845	27668
1521	23808	27689
1522	23849	27661
1523	23836	27624
1524	23821	27691
1525	23805	27680
1526	23856	27644
1527	23869	27658
1528	23818	27703
1529	23837	27665
1530	23843	27646
1531	23820	27708
1532	23825	27673
1533	23882	27652
1534	23842	27714
1535	23847	27713
1536	23830	27737
1537	23850	27675
1538	23836	27655
1539	23817	27702
1540	23809	27640
1541	23844	27592
1542	23797	27614
1543	23781	27577
1544	23791	27518
1545	23769	27513
1546	23735	27518
1547	23744	27437
1548	23754	27398
1549	23688	27422
1550	23685	27358
1551	23699	27330
1552	23677	27362
1553	23656	27308
1554	23708	27282
1555	23697	27293
1556	23635	27322
1557	23659	27256
1558	23669	27243
1559	23670	27281
1560	23634	27291
1561	23671	27246
1562	23690	27253
1563	23643	27290
1564	23655	27242
1565	23662	27222
1566	23644	27267
1567	23624	27231
1568	23676	27187
1569	23662	27248
1570	23612	27239
1571	23650	27185
1572	23648	27213
1573	23596	27212
1574	23651	27165
1575	23661	27184
1576	23614	27197
1577	23629	27130
1578	23615	27139
1579	23596	27170
1580	23615	27130
1581	23648	27113
1582	23599	27164
1583	23597	27130
1584	23627	27106
1585	23620	27171
1586	23600	27187
1587	23652	27145
1588	23671	27168
1589	23613	27213
1590	23644	27188
1591	23641	27173
1592	23635	27234
1593	23640	27204
1594	23679	27188
1595	23647	27236
1596	23636	27225
1597	23662	27182
1598	23659	27244
1599	23637	27268
1600	23672	27209
1601	23693	27215
1602	23657	27274
1603	23646	27206
1604	23664	27189
1605	23645	27253
1606	23628	27241
1607	23670	27201
1608	23683	27217
1609	23647	27251
1610	23636	27266
1611	23662	27213
1612	23667	27208
1613	23640	27262
1614	23637	27235
1615	23684	27208
1616	23691	27271
1617	23655	27290
1618	23671	27245
1619	23679	27218
1620	23680	27276
1621	23645	27310
1622	23673	27256
1623	23713	27242
1624	23674	27301
1625	23646	27300
1626	23683	27271
1627	23681	27294
1628	23671	27326
1629	23694	27284
1630	23736	27288
1631	23689	27346
1632	23671	27312
1633	23704	27276
1634	23700	27321
1635	23676	27345
1636	23697	27314
1637	23719	27291
1638	23721	27333
1639	23671	27342
1640	23722	27301
1641	23704	27311
1642	23683	27357
1643	23702	27318
1644	23741	27311
1645	23704	27348
1646	23682	27327
1647	23723	27292
1648	23710	27346
1649	23672	27358
1650	23728	27298
1651	23729	27354
1652	23692	27373
1653	23740	27311
1654	23711	27351
1655	23706	27386
1656	23728	27336
1657	23759	27357
1658	23711	27394
1659	23720	27360
1660	23732	27354
1661	23716	27395
1662	23706	27405
1663	23698	27409
1664	23745	27355
1665	23742	27361
1666	23765	27367
1667	23745	27395
1668	23709	27425
1669	23725	27390
1670	23740	27355
1671	23732	27404
1672	23705	27416
1673	23753	27379
1674	23773	27428
1675	23715	27440
1676	23760	27389
1677	23757	27405
1678	23738	27440
1679	23721	27418
1680	23771	27373
1681	23752	27422
1682	23747	27431
1683	23728	27449
1684	23736	27393
1685	23762	27395
1686	23738	27447
1687	23728	27419
1688	23780	27378
1689	23763	27427
1690	23727	27458
1691	23754	27410
1692	23765	27413
1693	23738	27466
1694	23741	27410
1695	23789	27409
1696	23752	27467
1697	23738	27434
1698	23765	27407
1699	23741	27469
1700	23729	27437
1701	23775	27382
1702	23730	27420
1703	23694	27390
1704	23726	27315
1705	23705	27336
1706	23671	27338
1707	23668	27251
1708	23695	27212
1709	23675	27226
1710	23611	27227
1711	23627	27157
1712	23630	27113
1713	23615	27152
1714	23572	27140
1715	23621	27075
1716	23637	27096
1717	23586	27127
1718	23571	27096
1719	23608	27053
1720	23595	27080
1721	23584	27103
1722	23572	27054
1723	23617	27018
1724	23610	27076
1725	23566	27088
1726	23591	27037
1727	23588	27027
1728	23578	27069
1729	23566	27024
1730	23603	26988
1731	23586	27044
1732	23535	27043
1733	23579	26982
1734	23571	27013
1735	23531	27024
1736	23584	26963
1737	23587	26974
1738	23537	27009
1739	23542	26966
1740	23555	26958
1741	23536	27006
1742	23539	26969
1743	23579	26956
1744	23551	27012
1745	23531	27012
1746	23566	26973
1747	23572	27028
1748	23547	27055
1749	23605	26997
1750	23620	27053
1751	23573	27084
1752	23558	27041
1753	23593	27024
1754	23589	27088
1755	23559	27086
1756	23630	27054
1757	23641	27048
1758	23605	27100
1759	23569	27109
1760	23611	27073
1761	23621	27109
1762	23593	27142
1763	23618	27095
1764	23645	27103
1765	23605	27155
1766	23594	27106
1767	23620	27091
1768	23617	27126
1769	23585	27138
1770	23641	27102
1771	23664	27104
1772	23617	27153
1773	23602	27138
1774	23628	27094
1775	23632	27161
1776	23595	27160
1777	23643	27119
1778	23666	27164
1779	23614	27187
1780	23651	27145
1781	23640	27163
1782	23627	27212
1783	23635	27177
1784	23677	27158
1785	23633	27210
1786	23618	27222
1787	23653	27173
1788	23657	27229
1789	23644	27240
1790	23653	27204
1791	23703	27187
1792	23649	27238
1793	23643	27235
1794	23681	27193
1795	23668	27251
1796	23629	27256
1797	23688	27226
1798	23707	27238
1799	23650	27273
1800	23668	27233
1801	23697	27235
1802	23669	27294
1803	23656	27294
1804	23716	27251
1805	23700	27306
1806	23675	27316
1807	23657	27285
1808	23705	27262
1809	23705	27314
1810	23667	27328
1811	23723	27290
1812	23730	27334
1813	23686	27359
1814	23731	27317
1815	23728	27329
1816	23709	27376
1817	23712	27345
1818	23759	27315
1819	23741	27385
1820	23704	27402
1821	23741	27360
1822	23741	27409
1823	23723	27432
1824	23759	27394
1825	23771	27419
1826	23745	27455
1827	23750	27421
1828	23762	27410
1829	23748	27464
1830	23732	27431
1831	23779	27413
1832	23768	27450
1833	23741	27457
1834	23762	27414
1835	23765	27456
1836	23734	27475
1837	23753	27439
1838	23790	27433
1839	23758	27477
1840	23740	27476
1841	23776	27430
1842	23785	27490
1843	23741	27506
1844	23790	27465
1845	23813	27496
1846	23748	27536
1847	23781	27485
1848	23793	27474
1849	23791	27529
1850	23752	27498
1851	23813	27464
1852	23781	27526
1853	23749	27531
1854	23793	27487
1855	23790	27532
1856	23754	27549
1857	23809	27500
1858	23826	27529
1859	23763	27566
1860	23805	27512
1861	23800	27521
1862	23780	27583
1863	23791	27535
1864	23832	27534
1865	23798	27595
1866	23779	27598
1867	23822	27575
1868	23825	27574
1869	23816	27637
1870	23806	27633
1871	23862	27584
1872	23864	27641
1873	23814	27687
1874	23834	27640
1875	23846	27605
1876	23814	27649
1877	23798	27628
1878	23804	27566
1879	23835	27510
1880	23776	27529
1881	23729	27487
1882	23756	27420
1883	23744	27368
1884	23724	27394
1885	23679	27380
1886	23698	27308
1887	23736	27283
1888	23685	27305
1889	23648	27290
1890	23694	27215
1891	23680	27263
1892	23634	27262
1893	23693	27217
1894	23688	27229
1895	23625	27257
1896	23660	27194
1897	23656	27196
1898	23627	27224
1899	23649	27179
1900	23681	27143
1901	23645	27185
1902	23613	27206
1903	23631	27144
1904	23644	27145
1905	23644	27164
1906	23619	27199
1907	23646	27126
1908	23665	27104
1909	23648	27144
1910	23603	27171
1911	23634	27121
1912	23631	27105
1913	23622	27156
1914	23593	27135
1915	23648	27106
1916	23637	27121
1917	23581	27149
1918	23650	27091
1919	23640	27142
1920	23602	27163
1921	23647	27094
1922	23624	27128
1923	23620	27154
1924	23607	27138
1925	23650	27106
1926	23658	27164
1927	23617	27172
1928	23640	27131
1929	23649	27180
1930	23624	27213
1931	23632	27172
1932	23660	27166
1933	23677	27139
1934	23689	27156
1935	23644	27213
1936	23628	27222
1937	23612	27211
1938	23665	27188
1939	23661	27175
1940	23649	27231
1941	23634	27244
1942	23656	27191
1943	23689	27166
1944	23674	27222
1945	23639	27232
1946	23681	27193
1947	23657	27202
1948	23642	27236
1949	23649	27178
1950	23672	27172
1951	23687	27214
1952	23620	27243
1953	23672	27189
1954	23658	27211
1955	23641	27236
1956	23638	27202
1957	23678	27182
1958	23700	27234
1959	23644	27250
1960	23675	27212
1961	23673	27207
1962	23659	27261
1963	23657	27220
1964	23692	27195
1965	23692	27250
1966	23636	27272
1967	23693	27221
1968	23686	27234
1969	23674	27284
1970	23683	27243
1971	23722	27231
1972	23675	27295
1973	23668	27270
1974	23706	27227
1975	23691	27308
1976	23678	27312
1977	23725	27248
1978	23721	27325
1979	23688	27346
1980	23708	27296
1981	23727	27300
1982	23704	27351
1983	23695	27338
1984	23738	27305
1985	23737	27358
1986	23698	27377
1987	23744	27322
1988	23731	27366
1989	23713	27397
1990	23738	27360
1991	23764	27343
1992	23754	27402
1993	23714	27408
1994	23761	27360
1995	23737	27389
1996	23718	27428
1997	23703	27412
1998	23765	27377
1999	23759	27414
2000	23720	27433
2001	23731	27396
2002	23766	27385
2003	23757	27442
2004	23715	27444
2005	23781	27401
2006	23771	27451
2007	23734	27457
2008	23784	27416
2009	23772	27458
2010	23740	27487
2011	23776	27439
2012	23806	27452
2013	23767	27488
2014	23756	27470
2015	23789	27445
2016	23787	27458
2017	23790	27511
2018	23773	27527
2019	23779	27496
2020	23825	27476
2021	23789	27554
2022	23771	27513
2023	23800	27478
2024	23803	27538
2025	23775	27552
2026	23812	27504
2027	23823	27523
2028	23780	27556
2029	23814	27498
2030	23800	27503
2031	23800	27550
2032	23769	27538
2033	23819	27515
2034	23839	27546
2035	23800	27569
2036	23825	27532
2037	23817	27516
2038	23813	27576
2039	23796	27589
2040	23809	27558
2041	23851	27536
2042	23835	27601
2043	23791	27609
2044	23833	27568
2045	23835	27615
2046	23809	27638
2047	23834	27594
2048	23867	27586
2049	23823	27629
2050	23806	27608
2051	23844	27574
2052	23835	27640
2053	23818	27633
2054	23868	27600
2055	23847	27641
2056	23816	27653
2057	23836	27574
2058	23831	27608
2059	23787	27593
2060	23824	27524
2061	23819	27515
2062	23763	27519
2063	23767	27427
2064	23763	27415
2065	23729	27430
2066	23710	27366
2067	23742	27316
2068	23738	27329
2069	23682	27350
2070	23699	27295
2071	23691	27267
2072	23667	27299
2073	23661	27271
2074	23701	27231
2075	23696	27271
2076	23664	27285
2077	23681	27244
2078	23685	27224
2079	23678	27268
2080	23660	27225
2081	23701	27203
2082	23659	27253
2083	23638	27247
2084	23674	27197
2085	23668	27219
2086	23641	27240
2087	23639	27213
2088	23689	27164
2089	23664	27212
2090	23614	27215
2091	23662	27157
2092	23659	27191
2093	23634	27219
2094	23661	27160
2095	23681	27160
2096	23625	27198
2097	23642	27162
2098	23647	27138
2099	23640	27198
2100	23614	27168
2101	23672	27135
2102	23645	27197
2103	23633	27187
2104	23666	27141
2105	23656	27202
2106	23628	27216
2107	23670	27186
2108	23686	27174
2109	23664	27238
2110	23634	27231
2111	23676	27196
2112	23676	27227
2113	23661	27277
2114	23663	27238
2115	23706	27221
2116	23720	27278
2117	23672	27307
2118	23680	27273
2119	23698	27241
2120	23694	27301
2121	23677	27319
2122	23698	27262
2123	23731	27252
2124	23687	27305
2125	23667	27298
2126	23706	27253
2127	23695	27269
2128	23674	27315
2129	23694	27261
2130	23729	27251
2131	23696	27305
2132	23686	27314
2133	23708	27261
2134	23714	27316
2135	23706	27313
2136	23675	27337
2137	23722	27295
2138	23746	27329
2139	23705	27363
2140	23735	27313
2141	23727	27328
2142	23708	27371
2143	23729	27350
2144	23765	27333
2145	23725	27391
2146	23712	27365
2147	23740	27351
2148	23745	27400
2149	23716	27402
2150	23766	27411
2151	23733	27430
2152	23735	27403
2153	23779	27379
2154	23748	27430
2155	23737	27444
2156	23712	27422
2157	23763	27388
2158	23760	27442
2159	23736	27451
2160	23778	27400
2161	23785	27439
2162	23745	27474
2163	23774	27415
2164	23770	27417
2165	23755	27477
2166	23754	27442
2167	23793	27430
2168	23762	27474
2169	23754	27496
2170	23793	27457
2171	23782	27479
2172	23775	27510
2173	23786	27472
2174	23826	27462
2175	23766	27516
2176	23777	27471
2177	23796	27456
2178	23782	27513
2179	23773	27522
2180	23812	27468
2181	23811	27516
2182	23775	27544
2183	23810	27510
2184	23828	27551
2185	23799	27591
2186	23819	27542
2187	23855	27544
2188	23822	27620
2189	23795	27593
2190	23829	27555
2191	23840	27568
2192	23847	27552
2193	23838	27614
2194	23807	27630
2195	23845	27586
2196	23842	27596
2197	23886	27587
2198	23834	27630
2199	23808	27642
2200	23867	27609
2201	23869	27643
2202	23840	27672
2203	23848	27630
2204	23879	27613
2205	23857	27671
2206	23846	27676
2207	23827	27686
2208	23828	27674
2209	23849	27634
2210	23867	27614
2211	23862	27672
2212	23830	27659
2213	23883	27606
2214	23869	27662
2215	23819	27679
2216	23873	27625
2217	23867	27636
2218	23847	27669
2219	23841	27669
2220	23884	27613
2221	23878	27680
2222	23847	27687
2223	23879	27625
2224	23876	27680
2225	23843	27682
2226	23873	27635
2227	23896	27629
2228	23828	27651
2229	23831	27587
2230	23831	27556
2231	23806	27571
2232	23783	27508
2233	23819	27453
2234	23771	27476
2235	23729	27436
2236	23771	27377
2237	23731	27364
2238	23710	27373
2239	23710	27345
2240	23676	27303
2241	23746	27259
2242	23697	27253
2243	23697	27276
2244	23723	27267
2245	23689	27270
2246	23670	27280
2247	23646	27266
2248	23656	27281
2249	23719	27203
2250	23662	27252
2251	23664	27259
2252	23678	27201
2253	23681	27220
2254	23667	27250
2255	23685	27177
2256	23691	27222
2257	23638	27215
2258	23676	27160
2259	23656	27218
2260	23638	27171
2261	23696	27158
2262	23640	27203
2263	23665	27148
2264	23658	27178
2265	23618	27185
2266	23670	27125
2267	23674	27170
2268	23620	27202
2269	23658	27164
2270	23662	27136
2271	23657	27151
2272	23660	27125
2273	23668	27200
2274	23626	27226
2275	23679	27186
2276	23701	27215
2277	23677	27238
2278	23667	27247
2279	23655	27262
2280	23706	27221
2281	23724	27249
2282	23681	27284
2283	23672	27249
2284	23694	27223
2285	23691	27284
2286	23664	27258
2287	23712	27232
2288	23703	27251
2289	23662	27276
2290	23702	27221
2291	23694	27262
2292	23665	27286
2293	23709	27217
2294	23716	27258
2295	23665	27274
2296	23717	27218
2297	23715	27257
2298	23678	27305
2299	23706	27259
2300	23736	27248
2301	23688	27312
2302	23707	27258
2303	23696	27284
2304	23680	27318
2305	23694	27281
2306	23727	27257
2307	23729	27299
2308	23704	27349
2309	23719	27291
2310	23719	27308
2311	23702	27345
2312	23699	27309
2313	23755	27288
2314	23707	27357
2315	23704	27360
2316	23727	27316
2317	23738	27297
2318	23723	27353
2319	23668	27358
2320	23751	27310
2321	23752	27339
2322	23718	27369
2323	23734	27325
2324	23731	27339
2325	23706	27375
2326	23720	27351
2327	23771	27316
2328	23740	27363
2329	23701	27373
2330	23741	27316
2331	23740	27375
2332	23722	27386
2333	23761	27360
2334	23775	27391
2335	23740	27399
2336	23720	27374
2337	23750	27335
2338	23741	27397
2339	23708	27411
2340	23759	27355
2341	23781	27387
2342	23719	27416
2343	23749	27359
2344	23752	27363
2345	23744	27417
2346	23724	27389
2347	23779	27360
2348	23754	27424
2349	23721	27408
2350	23757	27363
2351	23769	27436
2352	23732	27441
2353	23773	27393
2354	23795	27386
2355	23757	27429
2356	23738	27441
2357	23771	27402
2358	23758	27418
2359	23730	27469
2360	23773	27406
2361	23800	27406
2362	23755	27475
2363	23758	27421
2364	23775	27398
2365	23750	27464
2366	23739	27437
2367	23792	27423
2368	23789	27467
2369	23755	27467
2370	23750	27458
2371	23773	27427
2372	23777	27448
2373	23759	27478
2374	23775	27446
2375	23819	27422
2376	23759	27480
2377	23752	27461
2378	23776	27421
2379	23794	27484
2380	23751	27494
2381	23792	27444
2382	23802	27496
2383	23770	27509
2384	23781	27515
2385	23754	27521
2386	23812	27471
2387	23814	27515
2388	23768	27538
2389	23806	27495
2390	23835	27485
2391	23789	27536
2392	23784	27498
2393	23797	27460
2394	23807	27517
2395	23771	27535
2396	23799	27486
2397	23831	27462
2398	23781	27514
2399	23768	27479
2400	23795	27448
2401	23785	27504
2402	23750	27503
2403	23807	27457
2404	23808	27496
2405	23762	27499
2406	23807	27447
2407	23765	27430
2408	23750	27469
2409	23745	27391
2410	23783	27355
2411	23723	27383
2412	23692	27320
2413	23709	27271
2414	23686	27290
2415	23652	27257
2416	23663	27202
2417	23688	27144
2418	23629	27189
2419	23613	27133
2420	23621	27062
2421	23621	27090
2422	23568	27086
2423	23622	27031
2424	23619	27003
2425	23590	27043
2426	23551	27036
2427	23585	26986
2428	23587	27032
2429	23550	27033
2430	23601	26993
2431	23608	27009
2432	23555	27037
2433	23557	26984
2434	23577	26974
2435	23571	27018
2436	23548	27030
2437	23588	26974
2438	23605	26999
2439	23549	27024
2440	23577	26953
2441	23572	26963
2442	23537	26993
2443	23548	26940
2444	23595	26929
2445	23539	26971
2446	23526	26938
2447	23567	26901
2448	23551	26954
2449	23516	26949
2450	23570	26909
2451	23566	26958
2452	23521	26960
2453	23551	26914
2454	23554	26941
2455	23541	26982
2456	23568	26932
2457	23598	26938
2458	23537	27000
2459	23554	26968
2460	23594	26941
2461	23568	27023
2462	23557	26997
2463	23620	26979
2464	23588	27045
2465	23573	27051
2466	23560	27069
2467	23606	27032
2468	23588	27041
2469	23582	27087
2470	23570	27049
2471	23636	27028
2472	23642	27047
2473	23585	27098
2474	23594	27054
2475	23607	27034
2476	23609	27078
2477	23573	27089
2478	23631	27042
2479	23632	27069
2480	23583	27093
2481	23602	27058
2482	23601	27035
2483	23592	27090
2484	23571	27061
2485	23635	27049
2486	23614	27098
2487	23613	27074
2488	23614	27106
2489	23588	27110
2490	23602	27105
2491	23645	27070
2492	23643	27083
2493	23627	27144
2494	23596	27138
2495	23654	27102
2496	23667	27136
2497	23616	27170
2498	23646	27122
2499	23648	27127
2500	23628	27191
2501	23629	27137
2502	23676	27125
2503	23645	27174
2504	23624	27164
2505	23657	27133
2506	23663	27186
2507	23642	27197
2508	23640	27164
2509	23677	27168
2510	23686	27180
2511	23693	27169
2512	23698	27211
2513	23651	27252
2514	23642	27251
2515	23682	27212
2516	23678	27197
2517	23672	27247
2518	23656	27255
2519	23658	27245
2520	23664	27224
2521	23721	27199
2522	23692	27263
2523	23687	27262
2524	23671	27279
2525	23665	27246
2526	23710	27210
2527	23701	27227
2528	23690	27224
2529	23672	27278
2530	23700	27235
2531	23696	27216
2532	23695	27276
2533	23668	27278
2534	23709	27224
2535	23710	27273
2536	23677	27292
2537	23707	27246
2538	23713	27304
2539	23686	27338
2540	23722	27271
2541	23746	27290
2542	23709	27347
2543	23720	27310
2544	23732	27299
2545	23714	27361
2546	23690	27336
2547	23767	27314
2548	23729	27374
2549	23708	27377
2550	23752	27332
2551	23747	27384
2552	23719	27390
2553	23770	27388
2554	23756	27358
2555	23773	27352
2556	23739	27413
2557	23723	27383
2558	23752	27342
2559	23749	27399
2560	23715	27403
2561	23773	27361
2562	23785	27389
2563	23735	27431
2564	23741	27382
2565	23765	27374
2566	23747	27430
2567	23741	27422
2568	23781	27386
2569	23775	27441
2570	23741	27440
2571	23782	27402
2572	23762	27429
2573	23747	27476
2574	23777	27406
2575	23806	27420
2576	23774	27471
2577	23760	27442
2578	23780	27421
2579	23767	27488
2580	23746	27468
2581	23804	27421
2582	23789	27463
2583	23756	27466
2584	23793	27435
2585	23798	27465
2586	23770	27500
2587	23795	27454
2588	23828	27450
2589	23781	27506
2590	23777	27458
2591	23800	27455
2592	23794	27498
2593	23753	27490
2594	23803	27435
2595	23805	27442
2596	23747	27453
2597	23745	27376
2598	23745	27342
2599	23710	27360
2600	23694	27286
2601	23730	27224
2602	23667	27244
2603	23650	27228
2604	23620	27165
2605	23648	27102
2606	23631	27125
2607	23587	27103
2608	23634	27038
2609	23621	27066
2610	23572	27074
2611	23613	27020
2612	23595	27019
2613	23579	27054
2614	23569	27005
2615	23616	26966
2616	23588	27029
2617	23547	27015
2618	23594	27004
2619	23588	26998
2620	23581	26964
2621	23591	27001
2622	23551	27012
2623	23596	26957
2624	23605	26986
2625	23548	27008
2626	23585	26943
2627	23574	26947
2628	23544	26987
2629	23553	26951
2630	23602	26923
2631	23553	26966
2632	23526	26963
2633	23569	26905
2634	23561	26955
2635	23544	26966
2636	23538	26951
2637	23588	26914
2638	23577	26957
2639	23530	26979
2640	23585	26931
2641	23581	26970
2642	23547	27007
2643	23589	26950
2644	23572	26999
2645	23549	27005
2646	23598	26968
2647	23625	27012
2648	23561	27043
2649	23606	27003
2650	23607	26985
2651	23614	26995
2652	23608	27036
2653	23583	27064
2654	23590	27064
2655	23584	27049
2656	23632	27004
2657	23632	27026
2658	23576	27083
2659	23633	27063
2660	23600	27086
2661	23626	27043
2662	23623	27028
2663	23609	27088
2664	23600	27109
2665	23599	27065
2666	23650	27049
2667	23641	27103
2668	23624	27103
2669	23610	27126
2670	23645	27084
2671	23644	27081
2672	23642	27125
2673	23610	27136
2674	23664	27107
2675	23683	27129
2676	23636	27151
2677	23619	27148
2678	23658	27116
2679	23653	27134
2680	23636	27181
2681	23638	27148
2682	23688	27114
2683	23671	27179
2684	23627	27189
2685	23686	27141
2686	23663	27139
2687	23665	27209
2688	23656	27169
2689	23682	27142
2690	23691	27185
2691	23652	27217
2692	23663	27170
2693	23691	27167
2694	23664	27215
2695	23630	27200
2696	23692	27163
2697	23694	27197
2698	23638	27233
2699	23660	27174
2700	23676	27155
2701	23675	27206
2702	23639	27216
2703	23689	27177
2704	23703	27204
2705	23662	27232
2706	23663	27188
2707	23687	27172
2708	23682	27228
2709	23656	27237
2710	23707	27182
2711	23711	27243
2712	23664	27259
2713	23684	27229
2714	23709	27200
2715	23682	27279
2716	23670	27263
2717	23715	27226
2718	23744	27246
2719	23683	27295
2720	23689	27259
2721	23716	27228
2722	23716	27298
2723	23681	27313
2724	23737	27274
2725	23749	27295
2726	23703	27329
2727	23702	27296
2728	23729	27258
2729	23729	27327
2730	23696	27341
2731	23752	27303
2732	23759	27330
2733	23717	27361
2734	23731	27327
2735	23755	27316
2736	23729	27372
2737	23720	27350
2738	23763	27318
2739	23757	27363
2740	23723	27363
2741	23768	27322
2742	23738	27347
2743	23732	27380
2744	23728	27335
2745	23773	27319
2746	23736	27369
2747	23729	27391
2748	23784	27325
2749	23736	27386
2750	23712	27379
2751	23757	27332
2752	23761	27347
2753	23759	27330
2754	23749	27367
2755	23776	27393
2756	23739	27401
2757	23751	27403
2758	23723	27399
2759	23763	27353
2760	23773	27412
2761	23769	27415
2762	23772	27412
2763	23758	27440
2764	23759	27397
2765	23801	27382
2766	23768	27445
2767	23743	27441
2768	23786	27454
2769	23789	27421
2770	23801	27433
2771	23792	27406
2772	23791	27466
2773	23788	27441
2774	23790	27489
2775	23781	27456
2776	23797	27435
2777	23792	27466
2778	23785	27428
2779	23782	27375
2780	23770	27411
2781	23722	27392
2782	23753	27297
2783	23746	27288
2784	23687	27290
2785	23655	27203
2786	23673	27147
2787	23653	27162
2788	23596	27140
2789	23640	27061
2790	23655	27054
2791	23583	27069
2792	23587	27010
2793	23593	26971
2794	23589	27004
2795	23544	26994
2796	23596	26941
2797	23595	26965
2798	23566	26990
2799	23549	26962
2800	23593	26916
2801	23581	26977
2802	23549	26989
2803	23593	26944
2804	23623	26957
2805	23560	26990
2806	23553	26951
2807	23595	26922
2808	23580	26977
2809	23562	26997
2810	23584	26929
2811	23608	26930
2812	23558	26964
2813	23547	26929
2814	23592	26893
2815	23577	26949
2816	23534	26953
2817	23580	26900
2818	23601	26898
2819	23554	26939
2820	23545	26929
2821	23568	26884
2822	23567	26941
2823	23544	26949
2824	23579	26915
2825	23608	26923
2826	23580	26983
2827	23555	26953
2828	23600	26932
2829	23606	26978
2830	23590	27001
2831	23562	27012
2832	23620	26965
2833	23632	26978
2834	23597	27023
2835	23579	26998
2836	23613	26964
2837	23614	26988
2838	23598	27037
2839	23575	27021
2840	23627	26990
2841	23631	27030
2842	23588	27062
2843	23616	27008
2844	23618	27019
2845	23589	27059
2846	23606	27025
2847	23633	26987
2848	23628	27049
2849	23574	27066
2850	23634	27032
2851	23614	27006
2852	23615	27025
2853	23602	27047
2854	23585	27062
2855	23586	27057
2856	23601	27069
2857	23617	27029
2858	23627	27035
2859	23662	27038
2860	23621	27089
2861	23606	27067
2862	23641	27037
2863	23640	27056
2864	23645	27058
2865	23650	27123
2866	23623	27139
2867	23626	27134
2868	23664	27108
2869	23687	27138
2870	23645	27175
2871	23645	27125
2872	23666	27105
2873	23665	27169
2874	23665	27185
2875	23644	27194
2876	23694	27147
2877	23680	27143
2878	23681	27182
2879	23682	27172
2880	23680	27139
2881	23683	27197
2882	23660	27215
2883	23689	27166
2884	23709	27168
2885	23674	27204
2886	23636	27217
2887	23653	27237
2888	23689	27171
2889	23685	27161
2890	23682	27210
2891	23653	27208
2892	23695	27157
2893	23711	27192
2894	23676	27233
2895	23681	27190
2896	23694	27185
2897	23679	27229
2898	23661	27222
2899	23711	27166
2900	23720	27232
2901	23664	27263
2902	23695	27221
2903	23704	27189
2904	23690	27255
2905	23670	27255
2906	23724	27214
2907	23733	27196
2908	23721	27259
2909	23684	27282
2910	23732	27232
2911	23723	27245
2912	23715	27297
2913	23695	27272
2914	23740	27232
2915	23737	27303
2916	23698	27306
2917	23735	27265
2918	23735	27270
2919	23718	27320
2920	23701	27328
2921	23732	27274
2922	23771	27281
2923	23726	27325
2924	23718	27291
2925	23742	27262
2926	23742	27311
2927	23705	27345
2928	23761	27292
2929	23781	27296
2930	23734	27343
2931	23722	27321
2932	23750	27300
2933	23751	27344
2934	23714	27353
2935	23765	27311
2936	23783	27353
2937	23736	27372
2938	23736	27318
2939	23760	27321
2940	23758	27361
2941	23711	27361
2942	23767	27312
2943	23788	27355
2944	23739	27382
2945	23747	27343
2946	23768	27340
2947	23760	27388
2948	23733	27395
2949	23784	27347
2950	23804	27364
2951	23752	27395
2952	23737	27342
2953	23760	27326
2954	23738	27265
2955	23724	27286
2956	23683	27276
2957	23713	27180
2958	23705	27165
2959	23643	27166
2960	23631	27096
2961	23638	27046
2962	23620	27067
2963	23575	27036
2964	23623	26983
2965	23617	27006
2966	23581	27014
2967	23596	26954
2968	23594	26949
2969	23586	26932
2970	23591	26965
2971	23559	26997
2972	23591	26938
2973	23616	26933
2974	23579	26983
2975	23551	26966
2976	23585	26931
2977	23589	26960
2978	23561	26973
2979	23593	26928
2980	23620	26923
2981	23623	26927
2982	23567	26956
2983	23551	26935
2984	23577	26915
2985	23575	26887
2986	23571	26876
2987	23558	26934
2988	23527	26903
2989	23578	26856
2990	23592	26898
2991	23538	26910
2992	23552	26871
2993	23563	26855
2994	23543	26901
2995	23520	26885
2996	23578	26852
2997	23596	26912
2998	23542	26932
2999	23569	26902
3000	23582	26879
3001	23571	26946
3002	23551	26935
3003	23602	26902
3004	23618	26923
3005	23587	26976
3006	23575	26934
3007	23602	26915
3008	23599	26988
3009	23566	26994
3010	23624	26929
3011	23630	26973
3012	23592	27014
3013	23584	26957
3014	23601	26932
3015	23607	26986
3016	23574	26997
3017	23612	26943
3018	23637	26949
3019	23595	27004
3020	23576	26961
3021	23611	26933
3022	23609	26995
3023	23581	26995
3024	23605	26958
3025	23629	26968
3026	23591	27012
3027	23584	26962
3028	23613	26953
3029	23613	26934
3030	23607	26970
3031	23608	27006
3032	23569	27021
3033	23635	26965
3034	23640	26972
3035	23603	27035
3036	23597	26991
3037	23625	26965
3038	23622	27022
3039	23630	27045
3040	23598	27025
3041	23652	26995
3042	23645	27049
3043	23612	27079
3044	23657	27047
3045	23659	27050
3046	23652	27104
3047	23624	27082
3048	23673	27066
3049	23702	27108
3050	23652	27139
3051	23663	27106
3052	23678	27092
3053	23652	27163
3054	23646	27138
3055	23694	27104
3056	23703	27145
3057	23653	27165
3058	23679	27129
3059	23682	27109
3060	23666	27160
3061	23658	27145
3062	23704	27111
3063	23700	27154
3064	23661	27161
3065	23701	27123
3066	23682	27126
3067	23681	27181
3068	23663	27138
3069	23719	27115
3070	23695	27175
3071	23699	27191
3072	23667	27187
3073	23708	27144
3074	23698	27168
3075	23681	27210
3076	23706	27167
3077	23730	27151
3078	23699	27199
3079	23668	27200
3080	23711	27153
3081	23710	27191
3082	23667	27214
3083	23709	27170
3084	23736	27168
3085	23700	27212
3086	23688	27216
3087	23679	27218
3088	23715	27186
3089	23715	27176
3090	23702	27230
3091	23709	27205
3092	23684	27210
3093	23749	27192
3094	23716	27242
3095	23682	27236
3096	23716	27183
3097	23728	27238
3098	23688	27247
3099	23739	27208
3100	23762	27230
3101	23707	27268
3102	23712	27223
3103	23733	27206
3104	23730	27263
3105	23700	27247
3106	23749	27200
3107	23737	27266
3108	23708	27265
3109	23738	27236
3110	23734	27228
3111	23720	27279
3112	23708	27245
3113	23757	27229
3114	23733	27279
3115	23712	27258
3116	23755	27231
3117	23740	27293
3118	23705	27293
3119	23766	27255
3120	23772	27293
3121	23724	27321
3122	23770	27278
3123	23752	27291
3124	23727	27330
3125	23737	27283
3126	23785	27263
3127	23741	27335
3128	23722	27319
3129	23754	27275
3130	23751	27300
3131	23746	27341
3132	23724	27301
3133	23773	27266
3134	23760	27300
3135	23709	27300
3136	23733	27226
3137	23716	27197
3138	23680	27225
3139	23644	27174
3140	23674	27098
3141	23675	27084
3142	23618	27072
3143	23597	26993
3144	23609	26933
3145	23591	26948
3146	23542	26943
3147	23563	26912
3148	23533	26898
3149	23539	26846
3150	23576	26796
3151	23571	26793
3152	23541	26834
3153	23511	26846
3154	23553	26788
3155	23534	26797
3156	23519	26838
3157	23542	26822
3158	23515	26848
3159	23544	26793
3160	23573	26775
3161	23530	26845
3162	23507	26812
3163	23541	26773
3164	23530	26831
3165	23494	26819
3166	23556	26771
3167	23562	26802
3168	23512	26824
3169	23495	26794
3170	23527	26749
3171	23535	26794
3172	23516	26821
3173	23525	26774
3174	23550	26752
3175	23527	26795
3176	23500	26803
3177	23523	26764
3178	23534	26773
3179	23510	26825
3180	23503	26789
3181	23558	26775
3182	23556	26827
3183	23524	26853
3184	23563	26821
3185	23566	26828
3186	23550	26898
3187	23539	26874
3188	23585	26857
3189	23607	26910
3190	23566	26943
3191	23591	26895
3192	23591	26926
3193	23568	26961
3194	23587	26920
3195	23621	26894
3196	23580	26961
3197	23566	26929
3198	23598	26909
3199	23583	26970
3200	23577	26946
3201	23615	26909
3202	23611	26962
3203	23570	26981
3204	23607	26928
3205	23596	26971
3206	23572	26989
3207	23618	26934
3208	23644	26942
3209	23595	26982
3210	23586	26969
3211	23605	26932
3212	23607	26976
3213	23576	27008
3214	23607	26964
3215	23636	26942
3216	23600	26992
3217	23573	27006
3218	23615	26961
3219	23614	26981
3220	23619	27035
3221	23595	26997
3222	23652	26973
3223	23648	27031
3224	23607	27050
3225	23629	27014
3226	23632	27008
3227	23622	27061
3228	23594	27071
3229	23664	27025
3230	23663	27076
3231	23616	27078
3232	23671	27044
3233	23655	27049
3234	23638	27112
3235	23641	27067
3236	23681	27062
3237	23645	27115
3238	23639	27098
3239	23666	27055
3240	23668	27124
3241	23636	27131
3242	23686	27095
3243	23699	27121
3244	23659	27142
3245	23693	27141
3246	23679	27152
3247	23672	27150
3248	23670	27180
3249	23661	27176
3250	23655	27177
3251	23701	27168
3252	23710	27152
3253	23728	27164
3254	23683	27209
3255	23686	27183
3256	23707	27161
3257	23690	27234
3258	23674	27240
3259	23683	27202
3260	23729	27186
3261	23750	27208
3262	23715	27251
3263	23746	27230
3264	23716	27254
3265	23684	27270
3266	23722	27221
3267	23730	27226
3268	23716	27280
3269	23699	27264
3270	23748	27212
3271	23731	27278
3272	23706	27289
3273	23699	27295
3274	23734	27260
3275	23746	27261
3276	23739	27235
3277	23740	27291
3278	23703	27299
3279	23761	27259
3280	23764	27313
3281	23716	27322
3282	23771	27275
3283	23763	27319
3284	23731	27333
3285	23765	27289
3286	23780	27319
3287	23745	27352
3288	23759	27316
3289	23766	27303
3290	23733	27357
3291	23733	27313
3292	23792	27302
3293	23750	27368
3294	23730	27331
3295	23768	27300
3296	23767	27363
3297	23732	27352
3298	23789	27318
3299	23775	27373
3300	23738	27373
3301	23776	27335
3302	23790	27390
3303	23747	27395
3304	23794	27346
3305	23819	27347
3306	23788	27396
3307	23766	27419
3308	23787	27379
3309	23798	27368
3310	23782	27434
3311	23766	27421
3312	23809	27389
3313	23832	27387
3314	23780	27430
3315	23761	27424
3316	23796	27367
3317	23779	27371
3318	23750	27373
3319	23744	27303
3320	23709	27316
3321	23699	27242
3322	23731	27175
3323	23703	27201
3324	23652	27171
3325	23661	27085
3326	23650	27052
3327	23620	27062
3328	23603	27039
3329	23632	26974
3330	23629	27005
3331	23574	27003
3332	23587	26951
3333	23600	26913
3334	23596	26969
3335	23564	26976
3336	23572	26929
3337	23614	26901
3338	23601	26961
3339	23580	26986
3340	23556	26967
3341	23598	26912
3342	23595	26943
3343	23571	26972
3344	23572	26915
3345	23619	26888
3346	23576	26937
3347	23553	26950
3348	23589	26897
3349	23579	26879
3350	23557	26935
3351	23549	26882
3352	23595	26848
3353	23572	26906
3354	23542	26917
3355	23568	26858
3356	23566	26872
3357	23541	26915
3358	23547	26861
3359	23592	26838
3360	23551	26892
3361	23526	26888
3362	23571	26827
3363	23565	26894
3364	23536	26916
3365	23576	26868
3366	23605	26872
3367	23568	26925
3368	23556	26899
3369	23604	26886
3370	23589	26956
3371	23560	26966
3372	23616	26934
3373	23636	26927
3374	23583	26980
3375	23576	26966
3376	23604	26934
3377	23609	26977
3378	23568	26993
3379	23573	27004
3380	23584	26967
3381	23619	26953
3382	23637	26947
3383	23587	26993
3384	23580	26964
3385	23609	26936
3386	23609	26988
3387	23571	26989
3388	23604	26956
3389	23645	26942
3390	23592	26992
3391	23562	26983
3392	23603	26948
3393	23614	26998
3394	23585	27014
3395	23612	26964
3396	23640	26959
3397	23597	27015
3398	23580	27014
3399	23615	26981
3400	23622	27025
3401	23597	27051
3402	23642	27014
3403	23665	27024
3404	23636	27073
3405	23615	27039
3406	23650	27023
3407	23642	27097
3408	23622	27103
3409	23663	27042
3410	23685	27067
3411	23635	27128
3412	23636	27079
3413	23662	27063
3414	23656	27112
3415	23620	27119
3416	23684	27083
3417	23683	27112
3418	23649	27157
3419	23660	27112
3420	23678	27111
3421	23655	27157
3422	23650	27155
3423	23699	27099
3424	23687	27162
3425	23647	27171
3426	23684	27124
3427	23678	27124
3428	23666	27179
3429	23655	27147
3430	23707	27125
3431	23705	27178
3432	23659	27198
3433	23700	27157
3434	23698	27160
3435	23692	27165
3436	23682	27221
3437	23671	27187
3438	23723	27167
3439	23717	27230
3440	23687	27241
3441	23731	27194
3442	23714	27205
3443	23705	27266
3444	23693	27222
3445	23745	27197
3446	23753	27210
3447	23731	27271
3448	23699	27282
3449	23746	27292
3450	23704	27275
3451	23730	27238
3452	23731	27285
3453	23710	27314
3454	23731	27257
3455	23752	27238
3456	23767	27279
3457	23717	27301
3458	23724	27258
3459	23732	27239
3460	23730	27290
3461	23695	27290
3462	23746	27253
3463	23759	27301
3464	23708	27333
3465	23738	27286
3466	23743	27269
3467	23730	27326
3468	23708	27330
3469	23765	27289
3470	23772	27333
3471	23740	27349
3472	23746	27319
3473	23759	27303
3474	23743	27364
3475	23726	27343
3476	23778	27309
3477	23773	27365
3478	23730	27374
3479	23778	27332
3480	23768	27332
3481	23747	27400
3482	23745	27356
3483	23812	27331
3484	23780	27397
3485	23753	27404
3486	23777	27353
3487	23769	27361
3488	23746	27388
3489	23739	27317
3490	23773	27277
3491	23726	27305
3492	23685	27266
3493	23706	27197
3494	23693	27206
3495	23649	27188
3496	23679	27115
3497	23698	27100
3498	23639	27124
3499	23621	27057
3500	23632	27008
3501	23622	27052
3502	23583	27055
3503	23641	26976
3504	23633	27017
3505	23596	27035
3506	23595	26996
3507	23613	26981
3508	23593	27017
3509	23576	26996
3510	23618	26966
3511	23640	27001
3512	23578	27038
3513	23602	26986
3514	23613	26971
3515	23595	27040
3516	23579	27018
3517	23627	26971
3518	23630	27030
3519	23582	27026
3520	23623	26985
3521	23612	26961
3522	23621	26997
3523	23585	27033
3524	23585	26969
3525	23626	26959
3526	23592	27003
3527	23572	27009
3528	23599	26958
3529	23615	27002
3530	23583	27032
3531	23594	26981
3532	23638	26969
3533	23597	27029
3534	23573	27028
3535	23610	27001
3536	23620	27044
3537	23593	27067
3538	23624	27030
3539	23649	27033
3540	23668	27032
3541	23628	27100
3542	23609	27086
3543	23643	27061
3544	23642	27097
3545	23614	27127
3546	23654	27078
3547	23682	27063
3548	23630	27105
3549	23606	27101
3550	23636	27064
3551	23646	27106
3552	23615	27112
3553	23651	27069
3554	23672	27042
3555	23669	27078
3556	23627	27124
3557	23612	27091
3558	23634	27057
3559	23636	27090
3560	23607	27103
3561	23647	27058
3562	23673	27054
3563	23630	27105
3564	23614	27061
3565	23640	27043
3566	23635	27100
3567	23603	27123
3568	23670	27074
3569	23683	27097
3570	23637	27144
3571	23618	27112
3572	23657	27084
3573	23654	27144
3574	23626	27157
3575	23682	27124
3576	23706	27147
3577	23657	27191
3578	23659	27146
3579	23691	27133
3580	23679	27195
3581	23641	27200
3582	23695	27166
3583	23710	27191
3584	23667	27224
3585	23676	27230
3586	23668	27192
3587	23694	27181
3588	23694	27217
3589	23681	27242
3590	23673	27202
3591	23727	27187
3592	23692	27224
3593	23660	27231
3594	23700	27178
3595	23710	27252
3596	23680	27270
3597	23710	27221
3598	23739	27220
3599	23698	27263
3600	23679	27244
3601	23723	27206
3602	23720	27270
3603	23688	27295
3604	23719	27243
3605	23757	27268
3606	23693	27303
3607	23699	27268
3608	23735	27245
3609	23737	27310
3610	23704	27321
3611	23752	27277
3612	23764	27295
3613	23731	27335
3614	23711	27302
3615	23738	27278
3616	23746	27339
3617	23713	27344
3618	23768	27308
3619	23772	27310
3620	23735	27363
3621	23731	27312
3622	23740	27282
3623	23740	27348
3624	23711	27349
3625	23773	27305
3626	23763	27289
3627	23778	27328
3628	23740	27371
3629	23731	27328
3630	23756	27310
3631	23754	27368
3632	23716	27369
3633	23775	27325
3634	23791	27374
3635	23754	27410
3636	23757	27406
3637	23770	27405
3638	23772	27427
3639	23761	27428
3640	23769	27398
3641	23773	27382
3642	23793	27386
3643	23786	27415
3644	23783	27437
3645	23766	27461
3646	23793	27417
3647	23821	27389
3648	23773	27443
3649	23770	27455
3650	23763	27407
3651	23794	27378
3652	23792	27422
3653	23795	27417
3654	23780	27438
3655	23760	27461
3656	23806	27387
3657	23826	27402
3658	23759	27436
3659	23750	27389
3660	23780	27346
3661	23764	27379
3662	23737	27375
3663	23738	27302
3664	23763	27248
3665	23700	27270
3666	23664	27224
3667	23696	27155
3668	23671	27139
3669	23634	27146
3670	23628	27073
3671	23660	27017
3672	23635	27054
3673	23589	27049
3674	23626	26983
3675	23619	26971
3676	23596	26999
3677	23569	26946
3678	23614	26927
3679	23602	26956
3680	23561	26970
3681	23596	26924
3682	23569	26936
3683	23567	26965
3684	23568	26916
3685	23605	26893
3686	23576	26930
3687	23550	26957
3688	23598	26895
3689	23576	26907
3690	23552	26936
3691	23544	26893
3692	23601	26850
3693	23568	26904
3694	23530	26917
3695	23576	26852
3696	23556	26874
3697	23538	26901
3698	23537	26847
3699	23583	26826
3700	23544	26883
3701	23514	26871
3702	23553	26842
3703	23552	26836
3704	23547	26891
3705	23529	26866
3706	23582	26829
3707	23574	26876
3708	23541	26913
3709	23554	26879
3710	23574	26864
3711	23574	26921
3712	23540	26939
3713	23598	26896
3714	23609	26960
3715	23575	26985
3716	23596	26933
3717	23600	26947
3718	23587	26999
3719	23588	26967
3720	23623	26945
3721	23608	27000
3722	23573	27007
3723	23617	26959
3724	23613	26997
3725	23594	27022
3726	23585	26972
3727	23623	26939
3728	23613	27003
3729	23582	27014
3730	23624	26976
3731	23609	26996
3732	23596	27032
3733	23589	26998
3734	23631	26975
3735	23626	27033
3736	23591	27040
3737	23622	27010
3738	23617	27030
3739	23607	27068
3740	23599	27039
3741	23655	27004
3742	23641	27067
3743	23598	27087
3744	23622	27054
3745	23643	27032
3746	23649	27071
3747	23621	27101
3748	23617	27082
3749	23649	27061
3750	23677	27057
3751	23641	27121
3752	23633	27127
3753	23657	27082
3754	23665	27089
3755	23650	27137
3756	23614	27138
3757	23661	27125
3758	23702	27108
3759	23660	27166
3760	23638	27175
3761	23676	27125
3762	23684	27161
3763	23646	27201
3764	23681	27153
3765	23710	27155
3766	23680	27200
3767	23665	27202
3768	23664	27166
3769	23687	27138
3770	23696	27206
3771	23649	27208
3772	23712	27175
3773	23711	27155
3774	23735	27189
3775	23683	27243
3776	23684	27191
3777	23707	27173
3778	23701	27234
3779	23666	27242
3780	23724	27198
3781	23726	27224
3782	23703	27267
3783	23679	27268
3784	23720	27236
3785	23733	27282
3786	23692	27318
3787	23713	27276
3788	23696	27328
3789	23728	27285
3790	23751	27262
3791	23751	27328
3792	23722	27351
3793	23759	27309
3794	23746	27327
3795	23737	27390
3796	23744	27343
3797	23794	27333
3798	23755	27399
3799	23744	27400
3800	23769	27372
3801	23785	27419
3802	23752	27447
3803	23792	27408
3804	23822	27409
3805	23784	27462
3806	23765	27441
3807	23802	27416
3808	23806	27474
3809	23771	27508
3810	23812	27460
3811	23843	27467
3812	23807	27528
3813	23773	27516
3814	23822	27469
3815	23822	27527
3816	23796	27559
3817	23839	27509
3818	23868	27530
3819	23828	27580
3820	23821	27565
3821	23845	27539
3822	23856	27600
3823	23828	27619
3824	23859	27591
3825	23901	27602
3826	23862	27647
3827	23829	27637
3828	23881	27595
3829	23877	27648
3830	23844	27670
3831	23883	27619
3832	23915	27618
3833	23879	27681
3834	23861	27652
3835	23893	27621
3836	23894	27677
3837	23841	27692
3838	23889	27603
3839	23886	27593
3840	23835	27619
3841	23819	27539
3842	23824	27485
3843	23799	27496
3844	23758	27465
3845	23796	27381
3846	23779	27385
3847	23723	27384
3848	23718	27326
3849	23732	27265
3850	23707	27316
3851	23673	27281
3852	23717	27219
3853	23716	27253
3854	23673	27255
3855	23703	27196
3856	23684	27200
3857	23663	27229
3858	23671	27178
3859	23715	27157
3860	23674	27203
3861	23651	27176
3862	23677	27121
3863	23673	27176
3864	23643	27180
3865	23670	27127
3866	23677	27121
3867	23685	27107
3868	23666	27139
3869	23635	27157
3870	23638	27091
3871	23649	27065
3872	23654	27108
3873	23629	27137
3874	23631	27082
3875	23671	27056
3876	23635	27111
3877	23614	27091
3878	23635	27035
3879	23643	27090
3880	23615	27109
3881	23608	27073
3882	23662	27035
3883	23655	27099
3884	23612	27113
3885	23635	27085
3886	23660	27065
3887	23640	27122
3888	23613	27131
3889	23671	27101
3890	23689	27133
3891	23646	27163
3892	23659	27129
3893	23674	27120
3894	23669	27164
3895	23634	27189
3896	23688	27134
3897	23703	27144
3898	23658	27197
3899	23660	27162
3900	23675	27137
3901	23684	27191
3902	23649	27185
3903	23691	27141
3904	23714	27170
3905	23668	27212
3906	23669	27182
3907	23695	27155
3908	23692	27219
3909	23671	27228
3910	23711	27185
3911	23725	27206
3912	23672	27252
3913	23684	27203
3914	23711	27187
3915	23696	27190
3916	23690	27251
3917	23669	27238
3918	23720	27204
3919	23721	27249
3920	23675	27264
3921	23715	27230
3922	23723	27227
3923	23716	27290
3924	23698	27253
3925	23751	27227
3926	23762	27287
3927	23715	27326
3928	23713	27281
3929	23740	27267
3930	23735	27321
3931	23741	27331
3932	23720	27357
3933	23760	27307
3934	23785	27324
3935	23737	27359
3936	23730	27332
3937	23752	27308
3938	23753	27353
3939	23724	27379
3940	23727	27385
3941	23759	27352
3942	23794	27339
3943	23761	27382
3944	23733	27410
3945	23792	27346
3946	23762	27374
3947	23777	27411
3948	23735	27405
3949	23801	27374
3950	23815	27415
3951	23766	27436
3952	23778	27406
3953	23798	27393
3954	23773	27455
3955	23749	27446
3956	23808	27402
3957	23829	27412
3958	23785	27468
3959	23762	27479
3960	23809	27428
3961	23793	27465
3962	23787	27489
3963	23791	27447
3964	23829	27442
3965	23799	27480
3966	23769	27479
3967	23816	27449
3968	23811	27478
3969	23800	27520
3970	23813	27475
3971	23853	27462
3972	23807	27513
3973	23790	27515
3974	23821	27467
3975	23826	27526
3976	23806	27545
3977	23835	27507
3978	23866	27505
3979	23829	27551
3980	23816	27522
3981	23840	27505
3982	23834	27556
3983	23808	27586
3984	23839	27523
3985	23881	27528
3986	23818	27580
3987	23827	27538
3988	23843	27512
3989	23847	27563
3990	23811	27565
3991	23857	27532
3992	23871	27553
3993	23826	27583
3994	23835	27533
3995	23854	27522
3996	23849	27566
3997	23808	27553
3998	23862	27511
3999	23861	27572
4000	23827	27591
4001	23871	27550
4002	23860	27590
4003	23841	27627
4004	23862	27572
4005	23905	27567
4006	23849	27618
4007	23845	27629
4008	23823	27583
4009	23843	27525
4010	23837	27549
4011	23797	27537
4012	23843	27463
4013	23835	27439
4014	23775	27459
4015	23762	27382
4016	23771	27339
4017	23769	27359
4018	23713	27343
4019	23747	27275
4020	23747	27271
4021	23704	27293
4022	23692	27246
4023	23717	27206
4024	23721	27258
4025	23675	27261
4026	23729	27193
4027	23736	27227
4028	23686	27267
4029	23703	27213
4030	23714	27211
4031	23700	27265
4032	23696	27270
4033	23689	27243
4034	23733	27213
4035	23722	27256
4036	23684	27269
4037	23733	27224
4038	23711	27211
4039	23697	27269
4040	23689	27215
4041	23733	27199
4042	23696	27240
4043	23664	27234
4044	23705	27195
4045	23713	27226
4046	23668	27256
4047	23691	27200
4048	23730	27187
4049	23690	27246
4050	23677	27229
4051	23703	27206
4052	23710	27242
4053	23686	27285
4054	23722	27244
4055	23757	27250
4056	23711	27305
4057	23718	27273
4058	23732	27255
4059	23736	27320
4060	23705	27317
4061	23767	27288
4062	23769	27341
4063	23716	27357
4064	23765	27311
4065	23765	27317
4066	23731	27368
4067	23722	27338
4068	23771	27300
4069	23765	27364
4070	23728	27366
4071	23775	27325
4072	23749	27342
4073	23735	27384
4074	23737	27344
4075	23768	27333
4076	23784	27319
4077	23777	27369
4078	23734	27377
4079	23777	27338
4080	23783	27381
4081	23731	27376
4082	23762	27343
4083	23765	27381
4084	23735	27403
4085	23784	27360
4086	23798	27385
4087	23760	27425
4088	23759	27384
4089	23786	27380
4090	23763	27446
4091	23753	27418
4092	23806	27385
4093	23775	27451
4094	23765	27469
4095	23795	27429
4096	23789	27439
4097	23782	27481
4098	23796	27450
4099	23844	27433
4100	23790	27486
4101	23767	27454
4102	23804	27431
4103	23805	27482
4104	23776	27486
4105	23834	27436
4106	23824	27495
4107	23784	27527
4108	23792	27475
4109	23822	27446
4110	23820	27506
4111	23791	27525
4112	23820	27478
4113	23851	27485
4114	23810	27538
4115	23793	27528
4116	23822	27491
4117	23828	27522
4118	23812	27564
4119	23823	27515
4120	23863	27499
4121	23851	27572
4122	23813	27570
4123	23856	27537
4124	23847	27533
4125	23838	27597
4126	23801	27587
4127	23855	27535
4128	23881	27573
4129	23836	27600
4130	23835	27571
4131	23858	27552
4132	23850	27603
4133	23841	27572
4134	23896	27550
4135	23853	27616
4136	23815	27615
4137	23865	27561
4138	23868	27639
4139	23852	27657
4140	23886	27606
4141	23904	27634
4142	23840	27674
4143	23883	27640
4144	23891	27628
4145	23864	27666
4146	23853	27673
4147	23906	27627
4148	23905	27616
4149	23877	27666
4150	23846	27674
4151	23885	27624
4152	23884	27649
4153	23870	27693
4154	23858	27666
4155	23913	27628
4156	23905	27682
4157	23879	27711
4158	23902	27689
4159	23899	27669
4160	23901	27712
4161	23863	27712
4162	23924	27680
4163	23943	27677
4164	23883	27730
4165	23869	27704
4166	23916	27663
4167	23910	27720
4168	23882	27757
4169	23915	27706
4170	23943	27699
4171	23907	27740
4172	23874	27701
4173	23902	27669
4174	23880	27719
4175	23860	27674
4176	23894	27610
4177	23873	27631
4178	23828	27608
4179	23851	27524
4180	23833	27548
4181	23788	27535
4182	23831	27466
4183	23833	27462
4184	23772	27478
4185	23778	27420
4186	23779	27395
4187	23754	27431
4188	23739	27409
4189	23779	27367
4190	23795	27392
4191	23758	27421
4192	23741	27377
4193	23776	27348
4194	23774	27401
4195	23733	27402
4196	23768	27360
4197	23786	27343
4198	23744	27396
4199	23727	27375
4200	23766	27346
4201	23753	27366
4202	23743	27392
4203	23737	27342
4204	23778	27325
4205	23745	27357
4206	23726	27384
4207	23770	27330
4208	23753	27331
4209	23731	27365
4210	23731	27320
4211	23774	27301
4212	23732	27364
4213	23732	27351
4214	23760	27290
4215	23749	27354
4216	23710	27355
4217	23762	27308
4218	23773	27371
4219	23740	27382
4220	23781	27337
4221	23775	27385
4222	23742	27423
4223	23768	27381
4224	23811	27372
4225	23764	27437
4226	23772	27397
4227	23791	27391
4228	23791	27443
4229	23755	27464
4230	23778	27438
4231	23824	27412
4232	23792	27474
4233	23779	27488
4234	23785	27490
4235	23777	27470
4236	23823	27465
4237	23808	27454
4238	23795	27495
4239	23796	27514
4240	23786	27513
4241	23782	27515
4242	23784	27484
4243	23824	27460
4244	23849	27473
4245	23801	27514
4246	23777	27512
4247	23829	27494
4248	23829	27493
4249	23867	27473
4250	23868	27492
4251	23863	27492
4252	23866	27511
4253	23853	27510
4254	23852	27546
4255	23868	27502
4256	23866	27533
4257	23855	27527
4258	23886	27537
4259	23837	27590
4260	23817	27576
4261	23857	27554
4262	23817	27565
4263	23867	27577
4264	23852	27622
4265	23839	27637
4266	23845	27592
4267	23872	27560
4268	23848	27617
4269	23832	27598
4270	23898	27581
4271	23842	27631
4272	23873	27593
4273	23862	27618
4274	23825	27606
4275	23887	27569
4276	23853	27639
4277	23831	27627
4278	23879	27589
4279	23874	27645
4280	23827	27659
4281	23912	27593
4282	23890	27665
4283	23849	27653
4284	23883	27621
4285	23869	27691
4286	23895	27659
4287	23907	27671
4288	23863	27708
4289	23917	27651
4290	23910	27701
4291	23871	27720
4292	23929	27678
4293	23926	27704
4294	23880	27732
4295	23906	27694
4296	23905	27693
4297	23896	27754
4298	23910	27723
4299	23957	27724
4300	23918	27790
4301	23926	27752
4302	23934	27760
4303	23909	27818
4304	23944	27782
4305	23979	27769
4306	23928	27835
4307	23966	27777
4308	23959	27766
4309	23946	27830
4310	23915	27826
4311	23969	27792
4312	23984	27809
4313	23945	27865
4314	23941	27824
4315	23968	27797
4316	23964	27821
4317	23948	27872
4318	23932	27866
4319	23986	27821
4320	23995	27850
4321	23952	27899
4322	23944	27861
4323	23980	27837
4324	23985	27887
4325	23945	27910
4326	23971	27867
4327	23995	27860
4328	24011	27845
4329	23978	27900
4330	23968	27894
4331	23990	27857
4332	23986	27920
4333	23956	27918
4334	24004	27870
4335	24008	27926
4336	23964	27919
4337	24023	27881
4338	24005	27929
4339	23974	27950
4340	24022	27898
4341	24036	27881
4342	23991	27930
4343	23968	27899
4344	23991	27875
4345	23974	27881
4346	23956	27893
4347	23964	27833
4348	23981	27777
4349	23928	27799
4350	23893	27736
4351	23919	27675
4352	23902	27688
4353	23844	27673
4354	23886	27592
4355	23889	27623
4356	23870	27589
4357	23828	27602
4358	23851	27528
4359	23834	27519
4360	23808	27559
4361	23815	27490
4362	23862	27472
4363	23809	27523
4364	23797	27482
4365	23822	27465
4366	23812	27502
4367	23779	27509
4368	23810	27463
4369	23842	27447
4370	23806	27484
4371	23775	27445
4372	23804	27419
4373	23786	27462
4374	23764	27439
4375	23811	27388
4376	23798	27447
4377	23759	27451
4378	23795	27392
4379	23782	27415
4380	23745	27445
4381	23786	27386
4382	23809	27378
4383	23754	27424
4384	23761	27377
4385	23796	27359
4386	23783	27384
4387	23780	27369
4388	23786	27424
4389	23757	27438
4390	23806	27400
4391	23820	27436
4392	23762	27474
4393	23802	27432
4394	23799	27421
4395	23787	27488
4396	23774	27498
4397	23807	27453
4398	23844	27457
4399	23809	27517
4400	23808	27483
4401	23826	27469
4402	23827	27527
4403	23802	27527
4404	23848	27479
4405	23837	27536
4406	23808	27550
4407	23845	27507
4408	23839	27530
4409	23822	27550
4410	23805	27512
4411	23870	27566
4412	23807	27520
4413	23863	27491
4414	23824	27535
4415	23801	27536
4416	23831	27493
4417	23835	27540
4418	23796	27565
4419	23848	27508
4420	23868	27552
4421	23819	27579
4422	23854	27523
4423	23837	27545
4424	23819	27584
4425	23843	27541
4426	23878	27517
4427	23843	27589
4428	23816	27573
4429	23854	27535
4430	23857	27585
4431	23836	27608
4432	23873	27564
4433	23902	27611
4434	23846	27636
4435	23878	27600
4436	23882	27590
4437	23899	27629
4438	23863	27672
4439	23856	27667
4440	23901	27636
4441	23900	27680
4442	23867	27700
4443	23916	27638
4444	23893	27654
4445	23886	27712
4446	23878	27661
4447	23927	27651
4448	23889	27700
4449	23859	27705
4450	23899	27661
4451	23899	27708
4452	23883	27720
4453	23920	27690
4454	23928	27712
4455	23893	27752
4456	23917	27692
4457	23917	27702
4458	23894	27761
4459	23902	27716
4460	23952	27707
4461	23918	27760
4462	23897	27739
4463	23934	27708
4464	23921	27761
4465	23900	27764
4466	23937	27717
4467	23956	27758
4468	23924	27778
4469	23896	27738
4470	23928	27709
4471	23925	27764
4472	23904	27795
4473	23926	27742
4474	23963	27730
4475	23955	27762
4476	23918	27805
4477	23909	27756
4478	23930	27744
4479	23944	27806
4480	23908	27817
4481	23966	27788
4482	23980	27810
4483	23942	27847
4484	23950	27822
4485	23966	27792
4486	23968	27849
4487	23945	27886
4488	23979	27834
4489	24022	27850
4490	23969	27903
4491	23958	27855
4492	23979	27829
4493	23954	27897
4494	23954	27869
4495	24011	27835
4496	23982	27894
4497	23950	27893
4498	23986	27858
4499	23988	27909
4500	23969	27917
4501	23974	27885
4502	24015	27858
4503	24007	27916
4504	23959	27934
4505	24007	27873
4506	24014	27925
4507	23975	27950
4508	23988	27908
4509	23978	27922
4510	24028	27881
4511	24012	27946
4512	23978	27958
4513	24032	27911
4514	24012	27945
4515	23997	27990
4516	24018	27935
4517	24048	27926
4518	24012	27978
4519	24000	27927
4520	24011	27901
4521	23977	27939
4522	23959	27899
4523	24004	27827
4524	23981	27855
4525	23922	27841
4526	23960	27774
4527	23940	27767
4528	23900	27764
4529	23907	27693
4530	23928	27662
4531	23880	27680
4532	23862	27636
4533	23877	27595
4534	23867	27642
4535	23836	27625
4536	23877	27584
4537	23877	27615
4538	23819	27635
4539	23879	27590
4540	23870	27618
4541	23847	27644
4542	23872	27588
4543	23906	27592
4544	23854	27624
4545	23843	27601
4546	23867	27556
4547	23869	27605
4548	23834	27612
4549	23861	27564
4550	23887	27557
4551	23842	27598
4552	23813	27575
4553	23851	27524
4554	23844	27542
4555	23821	27571
4556	23811	27518
4557	23849	27472
4558	23840	27531
4559	23787	27540
4560	23847	27474
4561	23830	27467
4562	23808	27522
4563	23789	27486
4564	23836	27454
4565	23837	27518
4566	23793	27528
4567	23835	27484
4568	23834	27490
4569	23815	27548
4570	23813	27523
4571	23868	27502
4572	23840	27567
4573	23806	27569
4574	23852	27540
4575	23850	27586
4576	23830	27606
4577	23864	27557
4578	23878	27594
4579	23841	27637
4580	23870	27607
4581	23869	27594
4582	23857	27651
4583	23851	27607
4584	23907	27594
4585	23859	27668
4586	23848	27629
4587	23875	27598
4588	23871	27658
4589	23845	27668
4590	23877	27622
4591	23905	27612
4592	23861	27668
4593	23846	27654
4594	23890	27624
4595	23880	27656
4596	23864	27684
4597	23874	27637
4598	23902	27613
4599	23872	27665
4600	23852	27676
4601	23882	27636
4602	23885	27650
4603	23865	27690
4604	23850	27663
4605	23906	27620
4606	23902	27682
4607	23867	27699
4608	23902	27652
4609	23907	27657
4610	23885	27726
4611	23889	27672
4612	23939	27669
4613	23893	27722
4614	23884	27695
4615	23913	27672
4616	23916	27727
4617	23884	27733
4618	23932	27687
4619	23941	27741
4620	23888	27752
4621	23932	27707
4622	23932	27702
4623	23908	27769
4624	23912	27725
4625	23962	27718
4626	23917	27777
4627	23906	27744
4628	23948	27720
4629	23938	27774
4630	23910	27784
4631	23929	27732
4632	23966	27718
4633	23926	27768
4634	23897	27766
4635	23936	27719
4636	23937	27756
4637	23907	27781
4638	23916	27743
4639	23953	27712
4640	23932	27775
4641	23908	27784
4642	23947	27726
4643	23928	27737
4644	23927	27777
4645	23897	27762
4646	23954	27713
4647	23946	27762
4648	23910	27781
4649	23925	27738
4650	23937	27709
4651	23937	27769
4652	23891	27781
4653	23945	27742
4654	23955	27761
4655	23910	27789
4656	23944	27740
4657	23935	27731
4658	23928	27788
4659	23918	27737
4660	23960	27716
4661	23920	27779
4662	23904	27738
4663	23949	27710
4664	23934	27760
4665	23898	27755
4666	23948	27711
4667	23949	27774
4668	23909	27780
4669	23950	27736
4670	23934	27758
4671	23917	27797
4672	23943	27763
4673	23971	27730
4674	23924	27795
4675	23919	27768
4676	23954	27735
4677	23947	27786
4678	23912	27791
4679	23968	27747
4680	23977	27792
4681	23916	27803
4682	23958	27754
4683	23943	27757
4684	23920	27785
4685	23912	27741
4686	23955	27706
4687	23904	27726
4688	23877	27686
4689	23897	27608
4690	23883	27637
4691	23853	27631
4692	23826	27554
4693	23862	27515
4694	23823	27531
4695	23786	27521
4696	23821	27460
4697	23801	27442
4698	23800	27491
4699	23769	27468
4700	23802	27403
4701	23823	27426
4702	23772	27448
4703	23774	27406
4704	23784	27378
4705	23786	27423
4706	23752	27439
4707	23810	27397
4708	23829	27381
4709	23792	27421
4710	23758	27435
4711	23791	27381
4712	23778	27401
4713	23769	27428
4714	23763	27373
4715	23808	27355
4716	23767	27424
4717	23748	27366
4718	23780	27333
4719	23765	27394
4720	23730	27383
4721	23777	27327
4722	23787	27363
4723	23737	27391
4724	23776	27351
4725	23774	27356
4726	23774	27346
4727	23755	27402
4728	23753	27368
4729	23803	27354
4730	23782	27415
4731	23751	27417
4732	23799	27384
4733	23798	27420
4734	23766	27465
4735	23804	27416
4736	23836	27429
4737	23800	27484
4738	23789	27438
4739	23820	27418
4740	23796	27482
4741	23785	27456
4742	23839	27427
4743	23848	27470
4744	23791	27512
4745	23818	27446
4746	23813	27451
4747	23791	27495
4748	23783	27455
4749	23821	27427
4750	23834	27465
4751	23777	27488
4752	23799	27435
4753	23813	27418
4754	23803	27464
4755	23771	27472
4756	23827	27420
4757	23842	27429
4758	23807	27489
4759	23785	27459
4760	23813	27425
4761	23811	27476
4762	23788	27520
4763	23825	27483
4764	23857	27466
4765	23823	27531
4766	23789	27527
4767	23845	27486
4768	23834	27525
4769	23819	27559
4770	23835	27523
4771	23877	27525
4772	23831	27579
4773	23840	27538
4774	23853	27528
4775	23843	27586
4776	23813	27549
4777	23880	27527
4778	23848	27583
4779	23821	27584
4780	23853	27536
4781	23855	27589
4782	23825	27595
4783	23864	27555
4784	23902	27564
4785	23846	27621
4786	23844	27564
4787	23881	27552
4788	23861	27602
4789	23838	27618
4790	23876	27576
4791	23906	27570
4792	23857	27626
4793	23846	27600
4794	23879	27561
4795	23877	27609
4796	23849	27633
4797	23846	27588
4798	23889	27563
4799	23873	27630
4800	23828	27631
4801	23889	27587
4802	23881	27595
4803	23879	27640
4804	23851	27616
4805	23885	27577
4806	23893	27629
4807	23864	27646
4808	23864	27616
4809	23884	27590
4810	23876	27644
4811	23863	27607
4812	23896	27590
4813	23871	27641
4814	23849	27609
4815	23887	27578
4816	23881	27622
4817	23838	27628
4818	23896	27582
4819	23892	27634
4820	23844	27638
4821	23877	27597
4822	23872	27617
4823	23848	27663
4824	23871	27605
4825	23912	27604
4826	23857	27658
4827	23867	27626
4828	23883	27596
4829	23889	27661
4830	23864	27678
4831	23891	27635
4832	23926	27641
4833	23890	27686
4834	23872	27669
4835	23900	27636
4836	23903	27695
4837	23873	27723
4838	23881	27690
4839	23915	27665
4840	23924	27697
4841	23898	27740
4842	23868	27697
4843	23915	27671
4844	23908	27723
4845	23888	27721
4846	23916	27667
4847	23929	27643
4848	23871	27683
4849	23853	27628
4850	23866	27562
4851	23846	27606
4852	23800	27580
4853	23854	27507
4854	23839	27536
4855	23794	27524
4856	23832	27448
4857	23803	27475
4858	23777	27499
4859	23789	27438
4860	23819	27427
4861	23782	27464
4862	23763	27410
4863	23787	27379
4864	23766	27436
4865	23760	27419
4866	23811	27391
4867	23805	27422
4868	23769	27441
4869	23751	27420
4870	23774	27388
4871	23783	27398
4872	23751	27436
4873	23747	27375
4874	23781	27348
4875	23766	27387
4876	23737	27401
4877	23741	27345
4878	23764	27314
4879	23754	27362
4880	23722	27377
4881	23760	27335
4882	23778	27309
4883	23740	27351
4884	23709	27350
4885	23735	27302
4886	23741	27328
4887	23726	27356
4888	23717	27335
4889	23761	27288
4890	23758	27336
4891	23723	27358
4892	23752	27311
4893	23756	27296
4894	23744	27381
4895	23736	27360
4896	23785	27340
4897	23787	27399
4898	23748	27422
4899	23801	27379
4900	23792	27427
4901	23768	27474
4902	23802	27412
4903	23824	27433
4904	23772	27469
4905	23784	27438
4906	23795	27419
4907	23793	27479
4908	23759	27477
4909	23812	27427
4910	23828	27467
4911	23773	27488
4912	23813	27436
4913	23797	27450
4914	23782	27493
4915	23799	27455
4916	23833	27429
4917	23783	27478
4918	23763	27455
4919	23806	27428
4920	23805	27491
4921	23771	27475
4922	23824	27431
4923	23814	27497
4924	23775	27497
4925	23817	27468
4926	23820	27504
4927	23798	27527
4928	23818	27485
4929	23842	27460
4930	23842	27514
4931	23793	27551
4932	23831	27503
4933	23832	27496
4934	23820	27554
4935	23795	27539
4936	23841	27501
4937	23865	27536
4938	23814	27572
4939	23823	27532
4940	23843	27504
4941	23838	27553
4942	23836	27581
4943	23827	27602
4944	23848	27564
4945	23887	27538
4946	23837	27581
4947	23820	27589
4948	23848	27563
4949	23859	27558
4950	23844	27614
4951	23830	27589
4952	23896	27556
4953	23850	27610
4954	23819	27607
4955	23875	27565
4956	23861	27602
4957	23834	27624
4958	23870	27587
4959	23898	27581
4960	23839	27637
4961	23854	27592
4962	23871	27573
4963	23855	27646
4964	23847	27622
4965	23914	27591
4966	23881	27669
4967	23848	27668
4968	23901	27652
4969	23898	27642
4970	23908	27694
4971	23884	27739
4972	23886	27700
4973	23938	27688
4974	23950	27707
4975	23929	27765
4976	23911	27794
4977	23936	27772
4978	23956	27751
4979	23940	27801
4980	23910	27810
4981	23952	27782
4982	23911	27820
4983	23962	27781
4984	23986	27774
4985	23962	27827
4986	23938	27846
4987	23947	27799
4988	23959	27795
4989	23959	27815
4990	23941	27853
4991	23951	27823
4992	23984	27787
4993	23969	27852
4994	23931	27855
4995	23973	27811
4996	23967	27840
4997	23948	27881
4998	23957	27830
4999	23993	27804
5000	23971	27861
5001	23939	27872
5002	23979	27824
5003	23979	27841
5004	23968	27881
5005	23949	27851
5006	24001	27814
5007	23992	27869
5008	23965	27895
5009	23987	27844
5010	23979	27827
5011	23963	27867
5012	23934	27855
5013	23972	27780
5014	23976	27804
5015	23928	27806
5016	23922	27733
5017	23928	27688
5018	23888	27721
5019	23855	27662
5020	23889	27600
5021	23886	27615
5022	23823	27606
5023	23847	27522
5024	23838	27513
5025	23813	27543
5026	23784	27486
5027	23838	27440
5028	23826	27490
5029	23769	27495
5030	23769	27461
5031	23814	27415
5032	23799	27462
5033	23762	27469
5034	23816	27418
5035	23822	27409
5036	23768	27451
5037	23769	27395
5038	23791	27365
5039	23778	27407
5040	23741	27405
5041	23780	27342
5042	23791	27355
5043	23741	27389
5044	23762	27338
5045	23753	27319
5046	23753	27350
5047	23716	27348
5048	23712	27349
5049	23710	27338
5050	23763	27289
5051	23774	27281
5052	23750	27288
5053	23764	27265
5054	23740	27322
5055	23716	27337
5056	23746	27301
5057	23748	27349
5058	23753	27309
5059	23756	27315
5060	23759	27363
5061	23737	27386
5062	23731	27380
5063	23790	27355
5064	23795	27412
5065	23763	27438
5066	23775	27394
5067	23807	27386
5068	23795	27445
5069	23765	27459
5070	23819	27415
5071	23826	27464
5072	23785	27485
5073	23820	27453
5074	23814	27452
5075	23805	27510
5076	23795	27464
5077	23837	27440
5078	23796	27495
5079	23784	27471
5080	23810	27442
5081	23797	27509
5082	23785	27473
5083	23827	27445
5084	23807	27496
5085	23794	27493
5086	23823	27443
5087	23812	27501
5088	23781	27518
5089	23828	27465
5090	23849	27492
5091	23794	27526
5092	23805	27486
5093	23819	27470
5094	23822	27528
5095	23791	27538
5096	23846	27497
5097	23862	27524
5098	23812	27556
5099	23829	27523
5100	23853	27515
5101	23831	27514
5102	23844	27571
5103	23808	27577
5104	23863	27531
5105	23875	27558
5106	23827	27604
5107	23825	27570
5108	23871	27542
5109	23861	27597
5110	23842	27647
5111	23867	27595
5112	23905	27590
5113	23874	27646
5114	23854	27623
5115	23878	27597
5116	23893	27657
5117	23862	27672
5118	23895	27629
5119	23923	27647
5120	23878	27684
5121	23843	27651
5122	23884	27613
5123	23880	27670
5124	23849	27671
5125	23902	27626
5126	23912	27661
5127	23868	27703
5128	23885	27657
5129	23907	27631
5130	23888	27705
5131	23875	27693
5132	23920	27657
5133	23927	27721
5134	23883	27744
5135	23893	27745
5136	23927	27729
5137	23929	27709
5138	23924	27773
5139	23894	27773
5140	23947	27734
5141	23979	27732
5142	23925	27788
5143	23900	27786
5144	23947	27753
5145	23949	27774
5146	23920	27812
5147	23922	27772
5148	23971	27758
5149	23952	27809
5150	23933	27821
5151	23977	27774
5152	23951	27801
5153	23933	27843
5154	23939	27802
5155	23983	27792
5156	23956	27843
5157	23925	27846
5158	23969	27790
5159	23970	27836
5160	23953	27864
5161	23957	27815
5162	23985	27819
5163	23931	27825
5164	23951	27822
5165	23990	27802
5166	24002	27802
5167	23983	27836
5168	23939	27856
5169	23954	27806
5170	23967	27791
5171	23950	27851
5172	23916	27841
5173	23976	27790
5174	23982	27841
5175	23946	27854
5176	23971	27804
5177	23973	27804
5178	23965	27826
5179	23965	27867
5180	23954	27839
5181	23991	27836
5182	23995	27803
5183	23990	27808
5184	23972	27836
5185	23934	27828
5186	23909	27781
5187	23934	27735
5188	23928	27707
5189	23905	27731
5190	23870	27710
5191	23876	27644
5192	23913	27579
5193	23891	27562
5194	23855	27604
5195	23837	27598
5196	23805	27575
5197	23839	27539
5198	23843	27511
5199	23832	27520
5200	23808	27561
5201	23818	27520
5202	23840	27493
5203	23864	27520
5204	23804	27552
5205	23808	27497
5206	23824	27465
5207	23830	27524
5208	23792	27525
5209	23797	27466
5210	23842	27433
5211	23826	27453
5212	23783	27475
5213	23771	27431
5214	23791	27388
5215	23783	27403
5216	23787	27438
5217	23746	27438
5218	23790	27383
5219	23805	27403
5220	23748	27446
5221	23790	27399
5222	23779	27372
5223	23785	27375
5224	23775	27394
5225	23791	27367
5226	23776	27419
5227	23748	27437
5228	23799	27387
5229	23807	27406
5230	23762	27452
5231	23789	27410
5232	23798	27394
5233	23803	27465
5234	23777	27499
5235	23818	27450
5236	23849	27472
5237	23795	27524
5238	23795	27527
5239	23837	27493
5240	23822	27514
5241	23805	27563
5242	23825	27523
5243	23863	27511
5244	23828	27561
5245	23807	27533
5246	23835	27497
5247	23821	27572
5248	23801	27558
5249	23851	27512
5250	23854	27553
5251	23820	27564
5252	23837	27572
5253	23835	27569
5254	23829	27561
5255	23812	27575
5256	23814	27579
5257	23817	27550
5258	23841	27549
5259	23837	27580
5260	23832	27567
5261	23813	27590
5262	23867	27538
5263	23858	27529
5264	23846	27586
5265	23830	27607
5266	23823	27562
5267	23872	27556
5268	23868	27597
5269	23828	27616
5270	23860	27560
5271	23845	27627
5272	23823	27637
5273	23863	27602
5274	23893	27587
5275	23848	27627
5276	23865	27589
5277	23861	27606
5278	23826	27641
5279	23883	27573
5280	23882	27624
5281	23845	27652
5282	23853	27614
5283	23885	27611
5284	23873	27626
5285	23885	27628
5286	23860	27670
5287	23877	27628
5288	23898	27607
5289	23898	27655
5290	23830	27653
5291	23882	27610
5292	23890	27659
5293	23852	27689
5294	23891	27630
5295	23908	27650
5296	23867	27684
5297	23887	27629
5298	23892	27679
5299	23864	27692
5300	23909	27643
5301	23913	27696
5302	23867	27704
5303	23897	27657
5304	23909	27719
5305	23872	27737
5306	23863	27717
5307	23913	27659
5308	23922	27704
5309	23884	27732
5310	23907	27677
5311	23898	27698
5312	23882	27735
5313	23890	27683
5314	23937	27674
5315	23899	27735
5316	23866	27736
5317	23919	27679
5318	23924	27735
5319	23886	27758
5320	23885	27708
5321	23936	27685
5322	23913	27743
5323	23881	27739
5324	23935	27759
5325	23905	27724
5326	23922	27701
5327	23919	27748
5328	23896	27754
5329	23940	27693
5330	23928	27750
5331	23901	27760
5332	23921	27704
5333	23933	27743
5334	23901	27768
5335	23919	27707
5336	23950	27699
5337	23906	27757
5338	23891	27711
5339	23926	27703
5340	23914	27719
5341	23903	27768
5342	23894	27732
5343	23955	27706
5344	23917	27759
5345	23903	27775
5346	23940	27732
5347	23917	27735
5348	23899	27764
5349	23891	27695
5350	23926	27654
5351	23873	27690
5352	23851	27635
5353	23865	27573
5354	23852	27603
5355	23844	27533
5356	23826	27554
5357	23786	27521
5358	23805	27478
5359	23826	27439
5360	23793	27477
5361	23761	27464
5362	23791	27398
5363	23785	27435
5364	23751	27453
5365	23798	27392
5366	23779	27374
5367	23776	27379
5368	23786	27377
5369	23762	27430
5370	23748	27418
5371	23778	27367
5372	23802	27357
5373	23762	27382
5374	23738	27404
5375	23738	27370
5376	23762	27327
5377	23761	27380
5378	23735	27385
5379	23766	27330
5380	23791	27337
5381	23744	27386
5382	23721	27343
5383	23751	27310
5384	23741	27327
5385	23733	27366
5386	23730	27320
5387	23768	27298
5388	23750	27351
5389	23717	27359
5390	23749	27309
5391	23755	27332
5392	23760	27369
5393	23726	27335
5394	23759	27306
5395	23760	27364
5396	23727	27396
5397	23770	27355
5398	23790	27374
5399	23754	27424
5400	23768	27404
5401	23740	27430
5402	23797	27385
5403	23819	27416
5404	23766	27448
5405	23770	27403
5406	23790	27395
5407	23768	27443
5408	23762	27417
5409	23797	27371
5410	23786	27421
5411	23771	27461
5412	23769	27406
5413	23792	27404
5414	23770	27451
5415	23759	27414
5416	23825	27379
5417	23785	27452
5418	23752	27451
5419	23783	27403
5420	23793	27446
5421	23762	27460
5422	23793	27420
5423	23820	27441
5424	23774	27487
5425	23783	27432
5426	23799	27416
5427	23783	27474
5428	23758	27473
5429	23816	27443
5430	23848	27446
5431	23792	27493
5432	23775	27479
5433	23807	27451
5434	23812	27502
5435	23792	27524
5436	23792	27480
5437	23848	27458
5438	23805	27510
5439	23784	27529
5440	23824	27479
5441	23825	27480
5442	23813	27531
5443	23792	27507
5444	23844	27478
5445	23843	27525
5446	23802	27550
5447	23830	27497
5448	23833	27500
5449	23829	27541
5450	23805	27562
5451	23856	27517
5452	23858	27533
5453	23808	27582
5454	23846	27531
5455	23840	27546
5456	23827	27595
5457	23844	27558
5458	23881	27546
5459	23832	27589
5460	23824	27566
5461	23854	27547
5462	23858	27602
5463	23815	27590
5464	23870	27550
5465	23871	27599
5466	23835	27623
5467	23881	27576
5468	23864	27593
5469	23854	27630
5470	23840	27644
5471	23829	27646
5472	23881	27602
5473	23902	27589
5474	23863	27657
5475	23840	27642
5476	23861	27597
5477	23874	27634
5478	23858	27673
5479	23861	27628
5480	23904	27605
5481	23877	27667
5482	23851	27676
5483	23896	27635
5484	23890	27636
5485	23868	27683
5486	23857	27662
5487	23905	27643
5488	23925	27678
5489	23882	27696
5490	23869	27714
5491	23864	27711
5492	23895	27678
5493	23904	27729
5494	23904	27737
5495	23880	27750
5496	23875	27747
5497	23908	27716
5498	23930	27723
5499	23940	27768
5500	23915	27777
5501	23891	27773
5502	23928	27722
5503	23931	27772
5504	23911	27788
5505	23905	27757
5506	23940	27747
5507	23959	27746
5508	23923	27804
5509	23910	27775
5510	23945	27758
5511	23939	27812
5512	23910	27820
5513	23963	27786
5514	23956	27820
5515	23916	27835
5516	23928	27793
5517	23933	27747
5518	23931	27778
5519	23892	27770
5520	23927	27689
5521	23929	27694
5522	23867	27712
5523	23860	27631
5524	23865	27596
5525	23828	27627
5526	23819	27560
5527	23859	27508
5528	23816	27553
5529	23777	27546
5530	23811	27482
5531	23810	27512
5532	23769	27532
5533	23800	27479
5534	23837	27460
5535	23802	27509
5536	23798	27464
5537	23800	27443
5538	23803	27495
5539	23763	27495
5540	23810	27453
5541	23818	27505
5542	23772	27506
5543	23817	27460
5544	23801	27473
5545	23777	27509
5546	23773	27447
5547	23823	27435
5548	23802	27459
5549	23765	27492
5550	23787	27435
5551	23786	27399
5552	23756	27445
5553	23735	27441
5554	23779	27376
5555	23800	27400
5556	23751	27424
5557	23753	27382
5558	23782	27357
5559	23764	27404
5560	23728	27422
5561	23781	27374
5562	23812	27386
5563	23771	27436
5564	23746	27401
5565	23779	27359
5566	23779	27433
5567	23753	27458
5568	23787	27421
5569	23832	27413
5570	23772	27473
5571	23770	27452
5572	23807	27422
5573	23799	27477
5574	23763	27487
5575	23824	27449
5576	23820	27503
5577	23773	27503
5578	23833	27453
5579	23808	27490
5580	23792	27527
5581	23819	27493
5582	23854	27488
5583	23812	27534
5584	23794	27503
5585	23831	27505
5586	23814	27557
5587	23794	27538
5588	23847	27504
5589	23847	27555
5590	23821	27588
5591	23827	27554
5592	23841	27532
5593	23846	27582
5594	23808	27597
5595	23854	27557
5596	23879	27573
5597	23843	27628
5598	23813	27605
5599	23874	27579
5600	23859	27602
5601	23844	27640
5602	23848	27610
5603	23893	27580
5604	23882	27640
5605	23837	27666
5606	23870	27624
5607	23880	27628
5608	23863	27680
5609	23848	27684
5610	23895	27635
5611	23909	27700
5612	23859	27705
5613	23903	27665
5614	23889	27678
5615	23870	27724
5616	23877	27685
5617	23921	27680
5618	23887	27728
5619	23885	27696
5620	23900	27679
5621	23893	27757
5622	23873	27713
5623	23934	27685
5624	23910	27749
5625	23870	27750
5626	23912	27698
5627	23911	27748
5628	23882	27765
5629	23924	27726
5630	23947	27723
5631	23905	27770
5632	23881	27771
5633	23913	27730
5634	23917	27782
5635	23888	27801
5636	23917	27751
5637	23958	27729
5638	23925	27785
5639	23890	27792
5640	23930	27746
5641	23927	27779
5642	23912	27812
5643	23912	27781
5644	23956	27756
5645	23965	27784
5646	23958	27825
5647	23931	27859
5648	23935	27816
5649	23956	27794
5650	23958	27857
5651	23933	27884
5652	23971	27816
5653	23985	27856
5654	23941	27884
5655	23952	27852
5656	23957	27825
5657	23952	27893
5658	23937	27867
5659	24004	27837
5660	23991	27872
5661	23963	27900
5662	23957	27870
5663	23983	27850
5664	23968	27908
5665	23947	27886
5666	24003	27849
5667	23976	27915
5668	23973	27914
5669	23966	27936
5670	23945	27889
5671	23982	27873
5672	23977	27927
5673	23946	27930
5674	23998	27876
5675	24001	27937
5676	23963	27963
5677	24003	27925
5678	23998	27954
5679	23964	27990
5680	24001	27943
5681	24034	27943
5682	23985	28009
5683	23997	27981
5684	24010	27968
5685	24011	28039
5686	23996	28016
5687	24054	27988
5688	24036	28056
5689	24008	28095
5690	24021	28046
5691	24048	28053
5692	24050	28102
5693	24009	28109
5694	24064	28061
5695	24077	28078
5696	24033	28093
5697	24014	28050
5698	24021	27986
5699	24016	28004
5700	23969	27991
5701	23990	27911
5702	23999	27875
5703	23945	27900
5704	23908	27857
5705	23946	27803
5706	23920	27789
5707	23896	27803
5708	23886	27733
5709	23924	27694
5710	23904	27734
5711	23850	27732
5712	23893	27675
5713	23877	27691
5714	23845	27704
5715	23893	27653
5716	23899	27667
5717	23850	27688
5718	23875	27615
5719	23871	27614
5720	23848	27661
5721	23834	27627
5722	23886	27576
5723	23840	27622
5724	23814	27609
5725	23836	27536
5726	23837	27596
5727	23799	27581
5728	23839	27525
5729	23852	27537
5730	23796	27566
5731	23806	27522
5732	23826	27499
5733	23809	27547
5734	23785	27555
5735	23833	27497
5736	23855	27518
5737	23818	27579
5738	23843	27563
5739	23810	27584
5740	23807	27572
5741	23855	27615
5742	23848	27578
5743	23859	27592
5744	23840	27647
5745	23826	27647
5746	23881	27614
5747	23910	27665
5748	23855	27700
5749	23874	27673
5750	23884	27655
5751	23885	27714
5752	23869	27678
5753	23916	27658
5754	23875	27722
5755	23868	27704
5756	23884	27660
5757	23875	27714
5758	23846	27710
5759	23906	27672
5760	23919	27682
5761	23855	27715
5762	23862	27675
5763	23886	27652
5764	23853	27707
5765	23850	27669
5766	23901	27628
5767	23877	27696
5768	23832	27682
5769	23885	27627
5770	23867	27668
5771	23852	27692
5772	23863	27649
5773	23899	27621
5774	23873	27678
5775	23841	27691
5776	23894	27646
5777	23882	27651
5778	23872	27692
5779	23848	27668
5780	23900	27637
5781	23899	27698
5782	23862	27725
5783	23897	27681
5784	23896	27691
5785	23884	27767
5786	23862	27753
5787	23917	27718
5788	23935	27757
5789	23892	27794
5790	23901	27747
5791	23925	27726
5792	23926	27800
5793	23891	27797
5794	23932	27754
5795	23936	27771
5796	23904	27813
5797	23928	27775
5798	23924	27762
5799	23901	27812
5800	23908	27769
5801	23951	27751
5802	23915	27801
5803	23878	27796
5804	23927	27749
5805	23923	27798
5806	23886	27809
5807	23935	27761
5808	23954	27809
5809	23909	27842
5810	23921	27806
5811	23938	27782
5812	23941	27839
5813	23898	27841
5814	23946	27793
5815	23975	27809
5816	23928	27848
5817	23914	27814
5818	23944	27778
5819	23934	27819
5820	23911	27848
5821	23925	27804
5822	23968	27787
5823	23924	27828
5824	23893	27834
5825	23948	27792
5826	23938	27816
5827	23911	27847
5828	23909	27810
5829	23966	27787
5830	23941	27855
5831	23901	27852
5832	23946	27813
5833	23945	27860
5834	23907	27867
5835	23965	27829
5836	23970	27888
5837	23929	27890
5838	23958	27855
5839	23955	27851
5840	23959	27894
5841	23924	27892
5842	23986	27856
5843	23981	27909
5844	23940	27912
5845	23979	27883
5846	23973	27902
5847	23953	27941
5848	23979	27908
5849	24013	27906
5850	23972	27966
5851	23943	27949
5852	23985	27913
5853	23988	27944
5854	23971	27974
5855	23954	27938
5856	24007	27894
5857	23994	27953
5858	23960	27960
5859	23980	27915
5860	23995	27909
5861	23972	27952
5862	23982	27963
5863	23959	27972
5864	23984	27930
5865	24017	27912
5866	23987	27959
5867	23964	27975
5868	23956	27937
5869	23988	27906
5870	23977	27914
5871	23939	27920
5872	23949	27838
5873	23969	27808
5874	23889	27841
5875	23899	27759
5876	23899	27708
5877	23874	27737
5878	23848	27702
5879	23865	27659
5880	23891	27627
5881	23837	27666
5882	23830	27616
5883	23848	27569
5884	23833	27617
5885	23796	27605
5886	23842	27547
5887	23852	27586
5888	23812	27604
5889	23811	27546
5890	23822	27513
5891	23815	27561
5892	23795	27568
5893	23828	27516
5894	23847	27507
5895	23791	27556
5896	23787	27521
5897	23807	27470
5898	23808	27515
5899	23762	27537
5900	23790	27476
5901	23832	27461
5902	23783	27507
5903	23749	27492
5904	23798	27450
5905	23795	27448
5906	23762	27491
5907	23756	27447
5908	23814	27416
5909	23813	27471
5910	23748	27481
5911	23788	27429
5912	23777	27453
5913	23769	27492
5914	23783	27443
5915	23816	27428
5916	23767	27481
5917	23770	27447
5918	23793	27431
5919	23775	27495
5920	23760	27481
5921	23818	27439
5922	23798	27495
5923	23765	27506
5924	23812	27444
5925	23806	27514
5926	23773	27529
5927	23807	27497
5928	23831	27512
5929	23798	27558
5930	23791	27517
5931	23822	27515
5932	23822	27508
5933	23802	27565
5934	23792	27550
5935	23830	27505
5936	23842	27560
5937	23846	27491
5938	23818	27547
5939	23786	27554
5940	23824	27504
5941	23813	27521
5942	23797	27557
5943	23790	27526
5944	23850	27487
5945	23825	27550
5946	23790	27566
5947	23813	27523
5948	23821	27512
5949	23834	27573
5950	23796	27584
5951	23848	27544
5952	23860	27584
5953	23820	27611
5954	23839	27582
5955	23843	27568
5956	23823	27622
5957	23819	27592
5958	23868	27560
5959	23836	27640
5960	23819	27614
5961	23850	27577
5962	23853	27631
5963	23818	27652
5964	23870	27614
5965	23890	27625
5966	23835	27671
5967	23855	27622
5968	23865	27620
5969	23841	27680
5970	23843	27649
5971	23888	27611
5972	23879	27676
5973	23837	27693
5974	23874	27652
5975	23878	27637
5976	23857	27695
5977	23847	27689
5978	23891	27641
5979	23890	27671
5980	23857	27708
5981	23858	27674
5982	23895	27659
5983	23901	27664
5984	23892	27680
5985	23870	27728
5986	23872	27729
5987	23898	27687
5988	23918	27683
5989	23909	27721
5990	23868	27750
5991	23891	27712
5992	23892	27701
5993	23894	27753
5994	23861	27735
5995	23914	27689
5996	23906	27744
5997	23876	27766
5998	23897	27710
5999	23913	27753
6000	23883	27791
6001	23919	27728
6002	23939	27748
6003	23890	27792
6004	23891	27747
6005	23919	27733
6006	23896	27805
6007	23884	27765
6008	23933	27720
6009	23925	27777
6010	23888	27799
6011	23916	27735
6012	23916	27774
6013	23880	27798
6014	23919	27747
6015	23942	27775
6016	23898	27806
6017	23926	27774
6018	23931	27740
6019	23907	27815
6020	23899	27780
6021	23959	27751
6022	23963	27772
6023	23918	27823
6024	23910	27805
6025	23930	27762
6026	23939	27821
6027	23900	27843
6028	23947	27788
6029	23961	27829
6030	23917	27842
6031	23936	27792
6032	23934	27790
6033	23935	27831
6034	23897	27779
6035	23940	27737
6036	23893	27757
6037	23865	27729
6038	23873	27653
6039	23861	27670
6040	23824	27648
6041	23859	27574
6042	23858	27562
6043	23796	27582
6044	23805	27530
6045	23803	27489
6046	23780	27517
6047	23762	27483
6048	23803	27436
6049	23787	27475
6050	23747	27475
6051	23788	27428
6052	23771	27403
6053	23751	27453
6054	23730	27437
6055	23785	27395
6056	23785	27410
6057	23744	27443
6058	23741	27407
6059	23754	27366
6060	23756	27424
6061	23727	27429
6062	23731	27429
6063	23729	27385
6064	23781	27356
6065	23746	27407
6066	23718	27405
6067	23752	27350
6068	23742	27374
6069	23736	27426
6070	23709	27372
6071	23776	27357
6072	23739	27418
6073	23714	27428
6074	23754	27373
6075	23763	27444
6076	23731	27447
6077	23779	27399
6078	23805	27447
6079	23748	27468
6080	23777	27429
6081	23763	27425
6082	23755	27489
6083	23777	27448
6084	23824	27452
6085	23768	27513
6086	23760	27483
6087	23806	27468
6088	23790	27524
6089	23765	27534
6090	23818	27502
6091	23835	27523
6092	23796	27553
6093	23809	27572
6094	23787	27548
6095	23817	27518
6096	23820	27564
6097	23788	27588
6098	23814	27540
6099	23846	27512
6100	23814	27568
6101	23779	27572
6102	23808	27536
6103	23813	27503
6104	23814	27556
6105	23782	27579
6106	23812	27515
6107	23842	27504
6108	23803	27551
6109	23785	27584
6110	23820	27522
6111	23821	27522
6112	23799	27579
6113	23786	27584
6114	23832	27537
6115	23845	27561
6116	23813	27603
6117	23823	27568
6118	23827	27556
6119	23815	27609
6120	23803	27577
6121	23869	27550
6122	23838	27605
6123	23802	27601
6124	23841	27554
6125	23834	27599
6126	23811	27622
6127	23857	27576
6128	23874	27596
6129	23812	27634
6130	23821	27597
6131	23846	27575
6132	23841	27629
6133	23807	27625
6134	23861	27574
6135	23858	27625
6136	23817	27645
6137	23848	27607
6138	23846	27616
6139	23831	27660
6140	23846	27622
6141	23884	27581
6142	23846	27646
6143	23809	27638
6144	23844	27612
6145	23850	27637
6146	23824	27650
6147	23874	27607
6148	23877	27617
6149	23827	27647
6150	23841	27606
6151	23846	27600
6152	23836	27651
6153	23824	27617
6154	23887	27589
6155	23847	27643
6156	23815	27650
6157	23865	27611
6158	23862	27662
6159	23834	27678
6160	23880	27630
6161	23899	27645
6162	23848	27691
6163	23859	27643
6164	23867	27641
6165	23852	27691
6166	23845	27671
6167	23899	27635
6168	23874	27705
6169	23838	27722
6170	23882	27679
6171	23877	27675
6172	23866	27730
6173	23855	27709
6174	23902	27674
6175	23901	27729
6176	23862	27759
6177	23878	27691
6178	23903	27674
6179	23901	27734
6180	23860	27753
6181	23857	27721
6182	23908	27708
6183	23929	27745
6184	23869	27776
6185	23870	27749
6186	23897	27713
6187	23892	27733
6188	23885	27770
6189	23867	27775
6190	23908	27724
6191	23926	27710
6192	23891	27767
6193	23884	27737
6194	23900	27708
6195	23901	27771
6196	23885	27778
6197	23894	27743
6198	23940	27719
6199	23900	27784
6200	23871	27786
6201	23913	27727
6202	23900	27745
6203	23880	27756
6204	23864	27690
6205	23892	27653
6206	23874	27664
6207	23815	27651
6208	23856	27566
6209	23818	27534
6210	23799	27570
6211	23760	27516
6212	23800	27453
6213	23777	27467
6214	23739	27456
6215	23756	27412
6216	23756	27389
6217	23734	27424
6218	23728	27365
6219	23704	27370
6220	23744	27330
6221	23768	27336
6222	23722	27393
6223	23695	27363
6224	23727	27325
6225	23731	27367
6226	23687	27390
6227	23750	27339
6228	23751	27361
6229	23712	27385
6230	23718	27344
6231	23736	27322
6232	23721	27384
6233	23706	27350
6234	23747	27306
6235	23728	27359
6236	23686	27363
6237	23731	27321
6238	23725	27346
6239	23699	27379
6240	23727	27309
6241	23752	27324
6242	23701	27360
6243	23710	27321
6244	23720	27295
6245	23707	27355
6246	23692	27332
6247	23740	27301
6248	23734	27363
6249	23695	27375
6250	23728	27344
6251	23737	27325
6252	23732	27398
6253	23704	27406
6254	23762	27364
6255	23786	27393
6256	23772	27412
6257	23760	27439
6258	23754	27455
6259	23735	27485
6260	23741	27485
6261	23770	27474
6262	23805	27434
6263	23802	27435
6264	23789	27437
6265	23815	27456
6266	23764	27500
6267	23742	27487
6268	23781	27443
6269	23781	27493
6270	23749	27499
6271	23792	27449
6272	23780	27503
6273	23750	27487
6274	23790	27451
6275	23776	27528
6276	23766	27465
6277	23810	27486
6278	23762	27525
6279	23801	27472
6280	23786	27523
6281	23767	27510
6282	23838	27486
6283	23783	27546
6284	23789	27553
6285	23761	27557
6286	23812	27510
6287	23818	27514
6288	23803	27578
6289	23793	27555
6290	23835	27524
6291	23826	27589
6292	23790	27594
6293	23834	27542
6294	23822	27607
6295	23804	27605
6296	23849	27565
6297	23836	27617
6298	23809	27598
6299	23845	27580
6300	23836	27644
6301	23812	27638
6302	23855	27596
6303	23855	27642
6304	23807	27650
6305	23846	27601
6306	23851	27645
6307	23821	27646
6308	23851	27605
6309	23883	27595
6310	23848	27653
6311	23819	27650
6312	23857	27615
6313	23858	27651
6314	23838	27677
6315	23838	27635
6316	23878	27611
6317	23890	27644
6318	23853	27688
6319	23831	27656
6320	23870	27656
6321	23856	27633
6322	23863	27647
6323	23851	27687
6324	23829	27688
6325	23864	27635
6326	23893	27617
6327	23848	27677
6328	23831	27681
6329	23851	27654
6330	23869	27646
6331	23876	27627
6332	23862	27658
6333	23855	27701
6334	23848	27670
6335	23885	27644
6336	23900	27699
6337	23857	27709
6338	23861	27673
6339	23882	27670
6340	23872	27723
6341	23855	27728
6342	23899	27681
6343	23918	27688
6344	23867	27735
6345	23863	27706
6346	23894	27693
6347	23906	27721
6348	23876	27755
6349	23891	27712
6350	23925	27695
6351	23892	27757
6352	23874	27764
6353	23900	27714
6354	23916	27774
6355	23876	27804
6356	23929	27718
6357	23928	27758
6358	23921	27764
6359	23889	27776
6360	23884	27707
6361	23894	27658
6362	23873	27650
6363	23838	27674
6364	23829	27605
6365	23856	27557
6366	23816	27579
6367	23778	27561
6368	23802	27487
6369	23795	27494
6370	23774	27524
6371	23760	27461
6372	23817	27441
6373	23809	27430
6374	23757	27480
6375	23743	27457
6376	23764	27407
6377	23772	27448
6378	23737	27463
6379	23782	27414
6380	23810	27414
6381	23744	27455
6382	23759	27415
6383	23780	27401
6384	23767	27453
6385	23734	27457
6386	23793	27399
6387	23794	27428
6388	23748	27470
6389	23762	27415
6390	23782	27389
6391	23759	27439
6392	23723	27426
6393	23777	27387
6394	23796	27409
6395	23718	27443
6396	23753	27398
6397	23758	27378
6398	23742	27428
6399	23721	27411
6400	23761	27370
6401	23786	27401
6402	23775	27398
6403	23784	27388
6404	23787	27456
6405	23755	27477
6406	23769	27441
6407	23779	27430
6408	23786	27459
6409	23793	27471
6410	23790	27455
6411	23800	27471
6412	23787	27535
6413	23774	27565
6414	23821	27509
6415	23844	27521
6416	23800	27571
6417	23848	27535
6418	23848	27578
6419	23805	27617
6420	23819	27570
6421	23835	27558
6422	23819	27604
6423	23775	27603
6424	23845	27577
6425	23791	27612
6426	23835	27567
6427	23858	27559
6428	23813	27604
6429	23802	27579
6430	23836	27551
6431	23839	27622
6432	23799	27632
6433	23845	27573
6434	23863	27599
6435	23817	27646
6436	23821	27600
6437	23858	27581
6438	23843	27638
6439	23809	27648
6440	23851	27593
6441	23875	27633
6442	23830	27669
6443	23848	27619
6444	23863	27619
6445	23843	27671
6446	23853	27654
6447	23838	27674
6448	23827	27662
6449	23848	27655
6450	23847	27653
6451	23892	27623
6452	23878	27683
6453	23842	27707
6454	23885	27663
6455	23860	27670
6456	23849	27726
6457	23858	27683
6458	23882	27682
6459	23904	27656
6460	23904	27671
6461	23867	27735
6462	23844	27738
6463	23890	27699
6464	23883	27708
6465	23882	27763
6466	23864	27735
6467	23921	27699
6468	23920	27743
6469	23883	27778
6470	23885	27736
6471	23908	27715
6472	23900	27771
6473	23865	27773
6474	23912	27734
6475	23933	27772
6476	23860	27786
6477	23902	27751
6478	23905	27730
6479	23888	27793
6480	23878	27771
6481	23937	27734
6482	23923	27792
6483	23873	27820
6484	23935	27770
6485	23909	27779
6486	23897	27828
6487	23901	27782
6488	23947	27763
6489	23935	27820
6490	23900	27847
6491	23932	27786
6492	23924	27785
6493	23910	27830
6494	23893	27825
6495	23943	27776
6496	23932	27824
6497	23901	27841
6498	23938	27792
6499	23948	27804
6500	23919	27860
6501	23902	27851
6502	23947	27802
6503	23957	27817
6504	23916	27861
6505	23921	27817
6506	23937	27811
6507	23951	27869
6508	23909	27871
6509	23955	27841
6510	23974	27827
6511	23944	27870
6512	23918	27874
6513	23960	27826
6514	23962	27872
6515	23930	27898
6516	23937	27853
6517	23976	27818
6518	23941	27881
6519	23915	27878
6520	23957	27835
6521	23950	27874
6522	23936	27908
6523	23948	27869
6524	23985	27847
6525	23955	27901
6526	23929	27924
6527	23987	27865
6528	23968	27880
6529	23939	27906
6530	23896	27861
6531	23968	27796
6532	23937	27836
6533	23873	27811
6534	23904	27751
6535	23893	27689
6536	23887	27719
6537	23859	27704
6538	23862	27627
6539	23888	27596
6540	23818	27623
6541	23798	27589
6542	23820	27534
6543	23808	27551
6544	23793	27580
6545	23788	27524
6546	23828	27497
6547	23805	27538
6548	23774	27566
6549	23777	27524
6550	23795	27480
6551	23802	27534
6552	23780	27559
6553	23778	27510
6554	23831	27476
6555	23791	27551
6556	23779	27520
6557	23813	27497
6558	23799	27502
6559	23784	27552
6560	23788	27507
6561	23824	27472
6562	23791	27516
6563	23762	27519
6564	23814	27472
6565	23810	27510
6566	23766	27536
6567	23792	27481
6568	23815	27459
6569	23776	27508
6570	23753	27489
6571	23800	27432
6572	23793	27499
6573	23759	27507
6574	23790	27458
6575	23822	27453
6576	23773	27498
6577	23753	27497
6578	23799	27457
6579	23794	27465
6580	23772	27524
6581	23758	27506
6582	23793	27485
6583	23823	27459
6584	23801	27467
6585	23820	27482
6586	23806	27481
6587	23818	27469
6588	23847	27480
6589	23796	27533
6590	23766	27525
6591	23804	27507
6592	23815	27516
6593	23817	27523
6594	23810	27483
6595	23800	27493
6596	23800	27467
6597	23797	27497
6598	23781	27528
6599	23766	27524
6600	23757	27519
6601	23813	27470
6602	23826	27463
6603	23777	27512
6604	23773	27486
6605	23805	27448
6606	23809	27468
6607	23807	27470
6608	23796	27530
6609	23775	27519
6610	23829	27490
6611	23845	27506
6612	23786	27558
6613	23802	27531
6614	23825	27560
6615	23822	27537
6616	23833	27517
6617	23840	27546
6618	23826	27603
6619	23807	27564
6620	23853	27540
6621	23854	27589
6622	23811	27605
6623	23842	27566
6624	23851	27579
6625	23849	27566
6626	23825	27622
6627	23824	27591
6628	23869	27561
6629	23872	27608
6630	23841	27643
6631	23821	27643
6632	23855	27609
6633	23867	27655
6634	23848	27683
6635	23863	27641
6636	23895	27629
6637	23858	27685
6638	23847	27660
6639	23874	27635
6640	23889	27686
6641	23854	27705
6642	23839	27700
6643	23890	27700
6644	23884	27655
6645	23876	27694
6646	23864	27722
6647	23852	27704
6648	23901	27670
6649	23915	27702
6650	23872	27745
6651	23870	27696
6652	23895	27688
6653	23872	27744
6654	23862	27699
6655	23913	27678
6656	23908	27736
6657	23871	27749
6658	23903	27702
6659	23896	27741
6660	23880	27754
6661	23920	27701
6662	23918	27747
6663	23877	27751
6664	23907	27691
6665	23904	27743
6666	23886	27765
6667	23909	27715
6668	23934	27720
6669	23877	27758
6670	23898	27718
6671	23911	27694
6672	23885	27748
6673	23864	27732
6674	23915	27693
6675	23910	27734
6676	23872	27736
6677	23910	27684
6678	23891	27703
6679	23875	27731
6680	23868	27681
6681	23919	27659
6682	23885	27718
6683	23870	27719
6684	23903	27667
6685	23888	27720
6686	23870	27741
6687	23910	27690
6688	23922	27703
6689	23882	27718
6690	23866	27682
6691	23878	27622
6692	23862	27660
6693	23812	27635
6694	23847	27560
6695	23854	27557
6696	23800	27561
6697	23793	27487
6698	23793	27445
6699	23775	27468
6700	23733	27443
6701	23784	27387
6702	23781	27390
6703	23730	27414
6704	23719	27358
6705	23751	27333
6706	23721	27326
6707	23724	27342
6708	23719	27375
6709	23705	27328
6710	23746	27321
6711	23769	27359
6712	23714	27383
6713	23721	27344
6714	23741	27322
6715	23723	27377
6716	23697	27354
6717	23752	27316
6718	23759	27362
6719	23714	27377
6720	23731	27326
6721	23735	27312
6722	23716	27358
6723	23695	27330
6724	23754	27292
6725	23736	27347
6726	23702	27368
6727	23725	27324
6728	23732	27308
6729	23714	27376
6730	23695	27334
6731	23757	27296
6732	23734	27350
6733	23712	27376
6734	23697	27397
6735	23730	27354
6736	23741	27347
6737	23737	27409
6738	23716	27402
6739	23772	27372
6740	23787	27394
6741	23725	27448
6742	23746	27403
6743	23760	27385
6744	23764	27425
6745	23727	27468
6746	23760	27414
6747	23793	27400
6748	23754	27452
6749	23730	27454
6750	23771	27404
6751	23777	27459
6752	23739	27483
6753	23773	27427
6754	23804	27408
6755	23763	27479
6756	23747	27463
6757	23773	27414
6758	23779	27463
6759	23755	27494
6760	23779	27446
6761	23810	27441
6762	23778	27501
6763	23760	27474
6764	23797	27433
6765	23796	27490
6766	23757	27503
6767	23809	27467
6768	23836	27485
6769	23777	27529
6770	23782	27489
6771	23805	27471
6772	23797	27535
6773	23787	27553
6774	23833	27497
6775	23843	27514
6776	23795	27575
6777	23797	27525
6778	23818	27514
6779	23824	27566
6780	23782	27571
6781	23840	27532
6782	23859	27578
6783	23816	27603
6784	23830	27567
6785	23837	27559
6786	23839	27617
6787	23801	27584
6788	23869	27557
6789	23846	27621
6790	23821	27640
6791	23848	27588
6792	23847	27609
6793	23828	27654
6794	23838	27599
6795	23888	27598
6796	23840	27652
6797	23834	27635
6798	23856	27597
6799	23853	27664
6800	23822	27678
6801	23828	27663
6802	23877	27635
6803	23895	27680
6804	23853	27704
6805	23869	27670
6806	23894	27678
6807	23876	27742
6808	23867	27719
6809	23904	27689
6810	23908	27741
6811	23876	27754
6812	23910	27713
6813	23900	27732
6814	23886	27770
6815	23868	27774
6816	23910	27722
6817	23916	27720
6818	23928	27742
6819	23895	27799
6820	23886	27735
6821	23910	27718
6822	23908	27768
6823	23875	27769
6824	23918	27729
6825	23932	27746
6826	23900	27792
6827	23884	27757
6828	23910	27713
6829	23910	27774
6830	23875	27791
6831	23920	27753
6832	23954	27760
6833	23906	27808
6834	23897	27763
6835	23925	27745
6836	23910	27797
6837	23883	27802
6838	23929	27744
6839	23949	27773
6840	23907	27807
6841	23894	27821
6842	23944	27766
6843	23922	27783
6844	23915	27825
6845	23900	27816
6846	23947	27771
6847	23952	27831
6848	23924	27859
6849	23941	27807
6850	23936	27792
6851	23925	27856
6852	23908	27834
6853	23958	27805
6854	23950	27850
6855	23908	27859
6856	23967	27812
6857	23948	27811
6858	23932	27840
6859	23917	27850
6860	23901	27789
6861	23945	27737
6862	23907	27769
6863	23859	27757
6864	23883	27671
6865	23860	27649
6866	23829	27661
6867	23813	27578
6868	23844	27538
6869	23796	27560
6870	23766	27536
6871	23807	27474
6872	23789	27481
6873	23762	27507
6874	23775	27446
6875	23807	27423
6876	23763	27471
6877	23750	27451
6878	23762	27399
6879	23777	27446
6880	23735	27453
6881	23781	27408
6882	23800	27418
6883	23749	27459
6884	23744	27406
6885	23770	27381
6886	23756	27428
6887	23722	27426
6888	23771	27379
6889	23770	27405
6890	23718	27430
6891	23749	27387
6892	23745	27355
6893	23731	27394
6894	23703	27368
6895	23743	27321
6896	23751	27374
6897	23695	27372
6898	23740	27324
6899	23736	27323
6900	23726	27384
6901	23699	27347
6902	23759	27301
6903	23734	27364
6904	23707	27380
6905	23731	27318
6906	23731	27341
6907	23710	27385
6908	23718	27345
6909	23768	27318
6910	23737	27373
6911	23708	27386
6912	23743	27353
6913	23763	27398
6914	23717	27436
6915	23760	27387
6916	23803	27369
6917	23759	27455
6918	23741	27429
6919	23779	27390
6920	23771	27443
6921	23744	27457
6922	23789	27415
6923	23806	27404
6924	23749	27467
6925	23754	27426
6926	23772	27396
6927	23772	27451
6928	23733	27457
6929	23783	27401
6930	23790	27450
6931	23740	27465
6932	23783	27418
6933	23783	27401
6934	23770	27457
6935	23736	27478
6936	23797	27418
6937	23804	27438
6938	23762	27483
6939	23756	27450
6940	23780	27434
6941	23779	27487
6942	23749	27492
6943	23791	27466
6944	23824	27453
6945	23787	27522
6946	23773	27518
6947	23798	27487
6948	23806	27535
6949	23791	27564
6950	23802	27527
6951	23852	27522
6952	23815	27579
6953	23791	27583
6954	23839	27557
6955	23841	27591
6956	23811	27625
6957	23844	27583
6958	23867	27568
6959	23824	27621
6960	23812	27602
6961	23839	27561
6962	23847	27623
6963	23822	27635
6964	23864	27594
6965	23880	27601
6966	23845	27649
6967	23838	27609
6968	23856	27590
6969	23853	27662
6970	23818	27659
6971	23872	27616
6972	23880	27640
6973	23837	27678
6974	23854	27633
6975	23868	27625
6976	23855	27681
6977	23832	27675
6978	23873	27639
6979	23897	27685
6980	23856	27709
6981	23863	27684
6982	23881	27664
6983	23867	27717
6984	23847	27707
6985	23895	27676
6986	23908	27701
6987	23923	27671
6988	23933	27696
6989	23878	27741
6990	23865	27718
6991	23888	27698
6992	23904	27741
6993	23878	27760
6994	23875	27713
6995	23927	27683
6996	23896	27764
6997	23869	27772
6998	23916	27734
6999	23919	27760
7000	23882	27812
7001	23893	27762
7002	23949	27751
7003	23907	27805
7004	23889	27800
7005	23929	27765
7006	23928	27801
7007	23905	27847
7008	23927	27793
7009	23972	27771
7010	23936	27822
7011	23910	27841
7012	23947	27803
7013	23935	27815
7014	23932	27872
7015	23900	27828
7016	23962	27798
7017	23937	27856
7018	23910	27866
7019	23958	27818
7020	23947	27845
7021	23929	27893
7022	23925	27854
7023	23983	27825
7024	23955	27861
7025	23949	27895
7026	23977	27860
7027	23937	27906
7028	23945	27872
7029	23966	27845
7030	23956	27897
7031	23943	27940
7032	23978	27875
7033	23999	27888
7034	23946	27951
7035	23970	27915
7036	23977	27904
7037	23973	27950
7038	23938	27923
7039	23988	27859
7040	23962	27910
7041	23923	27884
7042	23939	27805
7043	23936	27828
7044	23881	27808
7045	23913	27716
7046	23920	27735
7047	23850	27721
7048	23864	27640
7049	23849	27588
7050	23847	27631
7051	23797	27625
7052	23842	27560
7053	23853	27529
7054	23848	27517
7055	23855	27530
7056	23836	27504
7057	23831	27502
7058	23839	27496
7059	23837	27552
7060	23792	27560
7061	23771	27520
7062	23827	27495
7063	23816	27555
7064	23783	27554
7065	23813	27506
7066	23831	27480
7067	23821	27522
7068	23784	27552
7069	23776	27496
7070	23800	27448
7071	23801	27494
7072	23764	27511
7073	23778	27440
7074	23804	27422
7075	23760	27459
7076	23750	27423
7077	23766	27388
7078	23761	27435
7079	23725	27436
7080	23779	27390
7081	23786	27410
7082	23733	27455
7083	23762	27407
7084	23769	27416
7085	23763	27453
7086	23752	27418
7087	23796	27404
7088	23765	27458
7089	23746	27459
7090	23777	27418
7091	23787	27469
7092	23759	27490
7093	23807	27448
7094	23820	27465
7095	23766	27508
7096	23785	27468
7097	23801	27463
7098	23799	27502
7099	23770	27519
7100	23812	27474
7101	23819	27496
7102	23761	27535
7103	23805	27485
7104	23809	27493
7105	23785	27544
7106	23773	27498
7107	23825	27459
7108	23800	27531
7109	23772	27531
7110	23809	27494
7111	23815	27532
7112	23780	27559
7113	23821	27508
7114	23852	27521
7115	23802	27569
7116	23796	27528
7117	23820	27509
7118	23814	27564
7119	23788	27548
7120	23839	27515
7121	23828	27570
7122	23789	27584
